-0.0006928254041317604,-0.0005247836943936622,-0.0003864006162451441,0.002073218206642936,-0.0009298293207785541,-0.0029694553083675075,-0.0022010259457878167,-6.729869268006541e-05,0.0032081577337634707,-0.003188182277776031,0.00024755214401623395,0.0037090772344966737,-0.0003793991904014365,-0.0021672505093109757,-0.001997651952334061,-0.0007245330551986747,-8.052799596977129e-05,0.0020146155328536913,0.001427207062313199
0.00038539043849909434,-0.0023840714954053146,0.004234400787555146,0.0022618008001087544,0.0008195190325381501,0.0002294247950142611,0.0018247636483954676,-0.0011022055894874278,-0.0014626147674165343,-0.00047354615869954237,-0.0011080010453337879,-0.004362021842417757,-0.0027854689689355066,0.0024245141327213105,0.0005076925480305263,0.0002033415927749702,-5.080323562056282e-05,0.000614486582474123,-0.0031057078571119943
0.000998102489545629,-0.0023517806267465326,0.002924281621592621,0.002040316329714302,0.001574937395024272,0.00019360412193823053,-0.003180979690643407,-0.0018372819160180683,0.0028894238623211675,1.561192366876736e-05,-0.0017611915523514149,0.004811669667892792,-0.003055755721360723,-0.0014980762918247574,-0.0028457790689601753,-0.00024319418449848712,-0.0004442880672649536,-0.0002493364498184644,0.004194620910265614
0.0012217712082474186,-0.0003542162998961261,0.004035859761227203,-0.002717449928921922,0.0010748012813391607,-0.002602219727632624,0.004116924653399231,0.003982108143665286,-0.001204578372794802,-0.003163337577830855,-0.00027868960205031535,-0.00035861644008207465,0.002269173044420718,0.001840144892968286,-0.0007942666516151971,-0.0010884531566492277,0.00023163694872633362,-0.0020001996541891974,-0.0016147026004827761
0.00020453232176372919,-0.004784417787012382,0.0032962920326859847,3.360684960347709e-05,-0.0009945491387704636,0.0020597027002844394,0.0005117795043551547,0.001396608999594712,0.0019282343253538223,0.0008110411107942206,-0.002879706206001759,0.0036675081066170137,0.00044148898462615066,-0.0018124036722534929,-0.0009497764952162291,-0.0002054592217712444,-0.0008584401490352319,0.002064382841160326,-0.0005550549982633921
0.00013070599009817204,-0.0011750917975834065,-0.00013258470853502188,-0.0010788794628871566,-0.0032816975731575133,0.0009553271542450501,-0.0007397880148686198,-0.0012884753967917595,0.0011222900557852741,0.0025170198210442956,0.0014449201079426769,0.0035048888690979003,-0.00235736439629045,-0.0003373399800132928,-0.0009580349447578087,0.0020023116647877376,-0.0022684008221724615,0.0027481836972043884,-0.0003615998614206134
-0.0016548446626736487,-0.0004555128005804912,-0.0006647070297469104,0.0006010664643245577,0.0003646850785358276,-0.002454940831595724,-0.0007184118091015739,0.00229948888360078,7.057439349552148e-05,0.000774630222803779,0.0005667064826106383,-0.0021257102146043398,-0.0012310718761523686,-0.0006892801007243114,-0.0016401834022120856,-0.0007059340741395258,-0.00019079828971916784,-0.00028014618233696497,-0.0029223749327640268
0.0003138925330400003,0.0024681474347087455,-0.001794825609999136,-0.001399421398383145,-0.002181326632217775,-0.000601720104363115,-5.0131025947727967e-05,0.002106294282631931,-0.0020782738348574022,0.00011968357778987137,0.000219681503958663,0.001003973632206384,-2.8914807414509263e-05,-0.0019430559427583598,-0.0001588540760882542,-0.0005021918146974388,2.072467887566182e-05,0.001661875800691398,0.000735303852413719
-0.0028829450278781647,-0.0007812080108498147,0.0018738857922218557,0.0027530003713907383,-0.0016848090113179067,-0.0019479930827822056,0.004639687551401139,-0.0031192699789226053,-0.0010491210905337989,-0.00047999242571147594,0.000571526644329066,-0.0019344709618449103,0.0006752285170071985,-0.000596369120633315,-0.0026065534767348263,-0.0029428004275573114,0.0022552618788916406,0.004188921330848474,-0.0004530890077600121
0.0044516381857967885,-0.0020730803788056797,0.0011911498011605405,0.0015704249660072446,0.00026796461269821555,1.3671289631003104e-05,0.0003322456757766123,0.004106337912543882,-0.0020713298340220396,0.0002245958265982621,-0.002753367196538621,0.0008940967981919165,0.0017028059490609127,0.002654464371326594,0.0014687925813056733,0.0038108353559832887,-0.00014756484165937288,0.00038267025926527726,-0.0011749648145690263
0.0017768449760300112,-0.0003969321929950025,-0.004476221926535605,0.004372070859227712,-0.0011421566626779167,-0.004332267971466824,-0.0007669486422873915,-0.0017532154181881788,-0.0025720531157349628,-0.0015054688711922167,0.002655394324118733,-0.0008873883263047436,0.00269998100109987,0.00029278086289420056,-0.00019992695695606076,-0.0008242492989275474,-0.0007445466909973899,-0.002919231830092671,-0.00028986297527948927
6.436321028325008e-05,-0.0003351716574524134,-0.001680342806783924,0.0011293564707835647,0.001798305524550266,-0.0024283058313645804,0.0008372254587987418,-0.004212391552425261,-0.0020145524265009294,-0.0003645893241201257,-0.001085985760010012,0.000411020194625412,0.00021605664041578042,0.002272282063905721,-0.004320797331802667,-0.0006401502667128288,-0.00010432051338764233,-0.0038338659880855796,-9.385953789726076e-05
-0.00046899155773832914,0.0007607178184044122,0.001441339798992606,0.003432223864458208,-0.0003332024366437338,0.0012911515105150145,-0.00035021097729096056,0.0003405216778418458,0.0017225001982153613,-0.005256816600509924,-0.0012215692824603967,0.0015955454283646186,0.00201762323237492,-0.0013739231782742784,-0.0030434500272161647,-0.003424498507323044,0.002182966508305656,-0.0012666130266343037,0.0017441592204110838
-0.0013607517150304295,0.0027698396439019917,-0.0039784395022916565,0.0014658987315808276,-0.001746972602622563,-0.00011193187475189498,0.006713536556073755,0.0012362364829962853,0.0022411007423861922,-0.0028518724575055383,-0.0015500821927503,-0.0005796620278232978,0.002276598722685244,0.0006783047310582293,-0.00032948222976890423,-0.0033880653442408203,-0.0014568801392529284,0.00074272099499743,-0.000254311015837782
-0.0020330172648853856,0.0007000931413756357,0.0021675720702454336,0.0003561377478256875,-0.001938489320740605,-0.001465879316792072,0.0009945333180061539,-0.002835541114028646,0.002372717104965063,-0.0037147776409944813,-0.00034322807500357936,0.002628826595359132,-0.0013411199237702148,-0.0031076575128743482,-0.0001034674892388187,-0.000908097311260369,-0.001074140907911254,0.00028332813785568353,-0.002233724350922576
0.0023687257228162456,-0.002193188173488314,-0.0026419617996213656,-0.0018830499717434307,-0.0014236721513400516,0.0014585763404624432,-0.0024277471679673784,-0.0018291758854833248,-0.000420257847340481,0.004090883124165623,-0.0021431640127903503,2.3579523620949272e-05,-0.002623544439270339,-0.0014250456996638518,0.0036594146434324633,0.001793809083147993,-0.0016401428188936543,0.0033636611139568184,0.0007227287490504974
0.002385189694037744,0.0004375541769370616,0.0006697774515518731,-0.0006099088870521403,0.0002247600826289757,-0.0009361536890845534,0.000622335204856701,0.0032638932067473015,-0.00034830448253986887,0.003064423418314553,-0.0009353103061913309,-0.0013340901357236533,0.002112643671985533,0.0029601978466975943,0.0020180937429062633,-0.0016040875078679425,0.0026303113130053337,0.001117145621896792,0.001672071747089504
-0.0007300108518926424,0.004149653604586018,0.0009396330269849359,0.0012424426851282166,0.00038795798844770723,-0.0022487601066438043,0.004050174636642447,0.0005097994929355209,0.004366961419268784,-6.261049863766942e-05,-0.0023860006769113426,-0.0011956713605891748,-0.0005700229360021531,-0.0029257179819463905,0.0013196973924554072,0.0017181586855489449,0.004137025016536374,0.0023949120752856,0.000979401929738617
-0.00031566632613484,0.0029424380084250887,0.002158328054663045,0.002389693144542709,0.0003819326378108119,-0.0024712681712012975,0.0014098681879449904,0.001620981582752526,-0.0005471028684161366,-0.0020757147783922233,-0.0013111856009487102,0.003772931028385922,-0.002565549436478022,0.0022882013030170226,-0.0004226379764047504,-0.0040057756557299274,0.002537965030506425,0.0010258029984743647,-0.0018511232249697515
-0.004650905622573956,-2.167703904512994e-05,-0.0032012611279109175,0.0007463768339187194,-0.0016104505241045113,-9.177051486629167e-05,-0.0030576627657465066,-0.0038832041808382345,-0.0007691398415461349,-0.0014462273547477683,-0.0002864190015710729,-0.003436773357902089,-0.00222947022913092,0.0009308440774927127,0.0020637848103975524,9.860245786027772e-05,-0.002284661064188448,-0.001465082242460967,0.0007352159162962854
0.0004605738914422347,-0.0003456108731432501,-0.002614807176455555,-0.004488323490028502,0.001978986565851863,-0.0024351238309500674,-5.711990265695465e-06,-0.00018807169297949952,-0.0010315414085391688,0.00106805185619386,0.0010826639837564894,0.0010255590045813452,0.004524016454294607,-0.0015210404187452249,0.00011144829827644397,-0.0020866316091156254,0.00270315415366553,-0.0011604643450498489,0.0004168262659967035
-0.0018985530038948424,-0.0005887836218702208,0.0034233028841522324,-0.001780144405736492,-0.0013974551603731264,-0.0019776957321709495,-0.000261834450648289,-0.0001403529545074587,0.001593582896770004,0.0009825749639870514,0.0004762887020103929,-0.00018655027809220417,0.0007148993613786059,0.0013295274649771304,-0.000644892091928188,4.842683997019785e-05,0.0013416616087893426,-0.004568124123238851,-0.001475356750759906
-0.00013368623798868745,-0.001484794220557618,2.847430902941229e-05,-0.00020324442564531939,-0.0014152655911493573,-0.0020419535338555618,-0.00022998357297226827,0.0018035925994738917,-0.003179558174477767,-0.0030127823902931,-0.0010035692455846483,-0.001395196056566236,-0.0020475415142260944,0.00048525816084403007,-0.000805920644948372,0.00046712755722185185,-0.0012557919877538596,-0.00022503364014093844,0.004377216959757257
0.003779484816835221,-0.002294524747830286,0.0032974495918407444,0.0031132788313381742,0.0018646486780974864,-0.002599758253096117,-0.0027140499802446316,0.00024437243391127006,0.0002880308319688356,-0.0007954632911213239,0.00021195317737949545,0.0012584244743783961,-0.0010404107149349195,0.0005540641141948767,0.0008667654459920368,0.0014812303346571282,0.0030312642548488353,-0.0016063550640747061,0.00068949873120778
-0.001036387184450514,0.0001441636781649314,-0.0018053773798478343,-0.0009745622392866384,0.0025581022561655623,-0.0034009236733507056,0.0019946204758228584,-0.002243335863626979,-0.002095343160857446,-0.0015228334987578513,0.002586524668349518,0.0016463572437323381,0.004194437823717577,0.00037859090950234664,-0.0007883915586395538,-0.0039056879434782744,-0.002185618899815273,0.0006127227059399471,-0.0008077902917575963
0.0007140636027373822,0.0020709556840824437,-0.0011913862508762714,0.0028652562348479666,-0.0018517991726516646,0.0017702666322085582,0.0008120399726113716,-0.003680435654536079,0.004191389947506944,0.0004463957131475897,0.002995281667865966,-0.0014106237577191103,-0.003937011996915914,-0.0023695232570244496,-0.004399045600425977,0.0016947555963335952,-0.0007658434147733553,-9.992769902411117e-05,0.0013809529237340317
0.0027076587627988718,0.0019162371237425296,-0.0005349656262309155,-0.0010306400279670837,-3.0635985754911983e-05,0.003230254818667833,-0.0007426082200436556,-0.002965886162879091,-6.881181668449138e-05,0.002662364347027024,-0.0016499105195802442,0.0018851968966713845,0.0013433427286730633,-0.0012089121104286089,0.0018004588384281524,0.0012292430775272375,-0.0020109514987163837,0.002317015224892869,-0.0050195728542136156
0.002059087308263273,-0.00035611575508162386,0.0013967737240384978,-0.0013222577697562688,0.000817753510241766,0.003025201460257683,-0.002300637436379607,0.000492032675270971,0.0001313366176618778,-0.003266697636040231,0.0017395793429471602,8.779085133394653e-05,-0.003030663638707459,0.0030876049884108335,-0.0007100066755664972,0.0004019558484801292,0.0008479561719461382,0.0016374348427797883,-0.0022479946166401184
-0.005348644691579581,-0.0018588009348553328,-0.0008158400372429361,-0.000911362944615065,0.000480690735707547,-0.0024311096616598457,0.002646957664474976,-0.000534362244629545,0.002111464925172269,-0.001291915448662643,-0.001968590089878449,0.0012665949701492548,-0.00027192970169284377,-0.0006039188356864084,0.0020244018794297347,-0.0011512832811016408,0.0035140584392315175,0.0016809567928594725,2.913587685113896e-05
-0.00012780439253146227,-0.0002823092134565049,-0.0011083791900353926,0.003500810475593005,-0.0008959892964150304,0.0007962477171620007,0.0012659821407704633,-0.004164404040504029,-0.001852134625970265,0.00032524839021076814,-0.000847702292000068,0.002231876031677831,-0.0023463274686152265,-0.001373902864520061,0.0016612109237159403,0.0011903437169187999,0.0006559664884632729,-0.002031324085680946,-0.000904134852780464
0.0015326024507111636,0.0007970983413268161,-0.0002276988602359126,0.0007260371023609538,0.005179975726600957,0.0014490827857625876,0.0007333285084126041,0.0021541107094857825,-0.00020542892414549018,0.003112452029249826,-0.00030410262758589156,0.0014490358570220796,-0.001913529480235439,0.000774595402248824,0.0006652188301813635,0.00056914053558596,-0.0016029745304336814,0.0018156348411057363,0.004090278345546753
-0.0009763901864378703,-0.003551697120148725,-0.0010989190337762629,0.00285650075823374,-0.0026427527158941816,0.0010356792695682094,-0.0024434967321073833,-0.001618030159057333,0.003198344762719359,0.003719354756271094,-0.0009624729757939498,5.871570031511771e-05,0.0029288559433588955,-0.0007121861309120871,0.00039241300341164584,-0.0016153205957743723,-0.00179632283488835,0.0002138375000691378,-0.0011962543126250958
-0.0035544894013211006,-0.0024277929877635535,-0.0009066407142382434,-0.0017984416211870846,-0.0019099163935591868,-0.0010275018456352696,-0.0007857870685858776,-0.00015604630952492855,-5.4596076031838286e-05,0.0036704951079289923,0.002983101912423306,-0.006213647430784955,0.002264121273186811,-0.001842120799415912,0.000571414796514756,-0.0024835469234635982,0.002343346150463494,-0.0013888842679821664,-0.0009151236348385195
0.002022045367724339,0.00016030899552884148,-0.0024650757606658313,0.0002735042310830923,-0.0010795388822697246,0.0010118004049097906,0.0018806018048439768,0.0029376907347458234,-0.0006778822300639,-0.0007025141725476193,-7.075948385018121e-05,-0.002021630882238824,0.0020011546336187653,-0.0004670093170283099,0.0006078296179927207,-0.004245685764063001,-0.0027952027537297575,-0.0025932718695878994,0.0013555745473671358
-0.0018867120879383413,0.0008290996541654846,-0.0007897777971481037,0.00041971407213272244,-0.000856005778698846,-0.001097199200827092,0.0026334561481649982,-0.0027513988543750034,-0.0003335021900307005,-0.0006706559677291885,-0.0002737262981176764,0.00032621179879647273,-0.003096724597482437,0.002076631083993312,0.0023308011738418415,0.0023122528955025565,-0.0007406526594953317,0.002230187978892997,-0.004387168221314295
0.0009336388414773136,0.0024043521431079823,-0.003969460804725091,-0.002481290908387513,0.0016865348517725984,0.004196383895155312,-0.0023788657936062146,0.0012229878766757685,-0.0005419529554125018,0.0019551792043485325,0.0019884597970492696,-0.0007460214365439444,-0.0024789520731581037,-0.0013456868361365376,-0.0005635083466994771,-0.0006300805778122786,0.0034290337500263333,-0.0009534252231124409,-0.0013636581536038235
0.0021629220240856834,0.00011802372162153365,0.0023083514437268683,-0.0005607145258908622,0.0039138919969878335,-8.575085649800358e-05,0.0019891479204976123,-0.0022052196324321444,0.00030697287249039875,0.0011576973042366307,0.0010852353090423277,-0.0035529742758215674,-0.0011771493866570063,-0.000671153638402442,0.001233561663264419,-0.00021194371228006685,0.0037031515275695107,0.0004559145353552283,2.0352515401433213e-05
-0.0011864525970767584,-0.0008540786607276222,0.0011534855633308382,-0.0011195937941641827,0.002687287284393228,-0.0034195172548972296,-0.00016793592155220645,-0.0015702683753786911,-0.0006119013309963517,0.0006077263962205366,-0.0007463706758912604,0.001715497273655927,0.0003578076738866271,0.0033162033967403183,-0.002311461985766257,0.002083473491107262,-0.0005479334792437391,-0.0020131784512876384,-0.003223901390707612
-0.00399680827124657,0.0009322989984597742,-0.0007806976467636514,0.0007519114482718764,0.004079926181835061,0.0018410008056478236,0.005054873499491929,0.0006176405616387721,-0.001326898128398036,0.0008794543555989294,0.0008178092297694881,-0.0010989863736973326,0.0013454365594747762,-0.00216801351824058,0.000271973830945217,0.0021217911880620577,-0.0012076394338800815,-0.0023440774092160907,0.0012880579213895875
0.00041289702404581505,0.004145499793526736,-0.0007827543621736898,-0.0023295766907480463,-0.004160313901275158,-0.0013782462310012963,0.0024918930610356126,-0.001511203013175283,0.0011771132685179193,-0.0002989353931423202,-2.0257881287616626e-05,-0.00028180186830787475,-0.0005385569292855048,-0.0035655062936261897,0.002454044408264874,0.001962651341933609,-0.00010384721821973994,-0.002378607051068809,-0.0007505614615992954
0.0005278577302341567,-0.0019643234250483576,-0.001006013206862157,-0.0029549492800187136,0.0008914235565569375,-0.00031611836828043734,0.002917900270231905,0.00024868450134357575,0.0025077442581112296,-0.001671795976587681,0.0005395726069595113,0.002358750018660003,-0.0037004640163217127,-0.0023226510270879714,-0.0005500214308222883,-0.004200948706571213,0.0037941542192926458,0.0015635013175433598,0.001417268470350974
-0.0012498359213052425,0.00039689174379149754,-0.004311998703527086,-0.0030498814536408397,0.0009248679997654187,0.00044573331385258137,0.0022587883636081972,0.0009740494855638552,0.003254340659279461,0.0027971971912521807,-0.0021598399175330207,5.286657591142917e-05,0.002958890964548774,-0.002699870933801167,0.003541268674227571,-0.00046563089941812735,0.00421352759113344,-0.00033878710434474764,-0.0006170004321544312
-0.0018140014192930078,-0.0015649918280026397,-0.0014158027910734995,0.0030122602931447356,-0.0013537186750418825,-0.0004707983142441579,-0.002250917886436423,0.0015798378620858777,0.001245254235888962,0.0002924503532187525,0.004983817913547455,-0.003165975129343753,0.0033537837438730885,0.0029588791558028704,-0.00016826506024186444,-0.0045276458098560375,-0.0004408461196094238,0.0028564252538074908,-0.0004867406440246892
-0.0010245599284835784,0.0023862441449562827,0.0006708038487005724,-0.0032452054342776157,-0.0010991270100490795,-0.001588779181787999,0.0017732465180014996,0.0005940378130785143,-0.0029748856168380273,-0.0012748371666998419,-0.002549363283357012,-0.002620068886234234,-0.0019056686969418995,-0.002527681723284229,0.00154321212664632,0.0013907700943932332,0.0017547759643739527,-0.0017136067931891542,0.0014308074488366504
0.0010285132065396645,0.000310627306926982,-0.0015978200230039139,0.00046116340376155826,-0.002063492644693873,0.0024057130076452797,-0.00045774540057454794,0.0018371402554068887,0.0010667756651130743,0.00060032909602079,-0.00022244960922267624,-0.0011013128149145845,0.0015883217326230963,-0.0011485170673547946,-0.0004558015132683068,0.0006315888875299464,-0.002397372449003613,0.0010845015194050718,-0.0007757796778190693
0.0014148364053251192,0.0010268984350646276,-0.0008768188062760972,0.001886906083952808,0.005006147721332777,-0.0022363335182714384,-0.0005493647037514431,0.0022519551589376126,0.003258873276188033,-0.002322300132598149,0.0038652431943674904,-0.0012132369733129928,-0.0031052936881545774,-0.0021029151524021667,0.0008320581917413021,0.002594257535370972,0.00016907435820398518,0.00042290891620577986,0.0035752155187314272
0.0032711474354675026,-0.0005369941464239945,-0.0013074790300610917,0.0005314807594311845,-0.00045219338050695275,-0.001411837466501941,-0.003759641231654596,-0.0020355373236803235,0.00030863696765758887,-0.0015338863048173662,-0.0026988655654045807,0.0035734908293462635,-0.002594438529855411,0.0019074771438546527,-0.00025827373858657563,-0.0010537420036218247,0.0008852522346249912,0.001924216789626781,0.0016847449136470514
-0.0009536974377714091,-0.00139495189022526,0.004065465699666461,-0.001123470789638669,0.00014424231231036273,-0.0018380283804282243,-0.0016462479150107386,0.001224986618016534,0.0021991000054844174,-0.001136264680097803,0.0019356216573524839,0.0006354035498328508,-0.0012076279911006286,0.0010999815554628572,0.0006999017896738473,0.0018894552035078657,0.004277505776133961,-8.280534595854635e-05,0.0026460575980414855
-0.0022772785414491505,0.0018081852681653154,0.00013975038928267333,-0.0009322559791908576,-0.0012425053436994936,0.0016357379796496424,-0.0026551363374183977,0.003055396705203841,-0.0026150975630284882,0.0020307776519584634,-0.002819940089962319,0.004760749958716319,0.00121408619107969,0.003474127977471452,0.00035658265574313604,-0.0029712993727516045,-0.0001047649680949734,-0.0020225827828977416,-0.0047461496991493875
0.00026584004376060456,0.003127928049547477,0.0021311799210775046,-0.0002620749739142535,-0.0009200190651458645,-0.0011477754024186767,-0.0017658459500309962,-9.140635522318404e-05,-0.001197074000816455,0.0010631248571629326,0.0006323264361543284,0.0014525107975227518,-0.003784180549621865,-0.0031683129855594678,-0.0013432196419593872,-0.0008985780121616192,0.00040291033463940416,-0.00036464236726572476,-0.002360368428143689
0.00449752864069768,-0.003014845098076614,-0.0023731459514120933,0.00020482953544548297,0.0003593698737983899,0.0005479733090639429,-0.0002659825644643342,-0.00150366675052828,-0.00012035591777382217,0.001555822459746099,0.0021019631572763015,0.0009397545479562151,-0.00023498145990677647,-0.003922592822171977,0.003000152674455523,0.0005990271852388659,-0.000768033829630071,0.0005293292507016422,0.0006262298318249534
-0.001119489171710496,-0.002450198446274602,-0.0014573559850068654,-0.0017753149824464897,0.0030930980607990124,0.0008143858622508128,-0.0008007559563902267,0.00039742192203256506,0.0010249750702855693,0.0005881125738267858,0.00211025212498689,-0.0005697250332787946,0.003053546619174814,0.0006254029869872084,0.0022731505262826896,-0.0019675012456432605,0.0013682468471962947,-0.0022429837207007413,-0.000380278478197792
0.0010061065221486929,-0.0023441561053030393,-0.003381567690115284,0.000553769167140302,0.0022885646071476224,0.0009539818139308711,0.001467769682003959,0.0008795711600939067,0.002814764569474176,0.0016334399502190764,-0.0003872849415212881,-0.004126976289936625,0.002988078558032334,-0.0002657224848685967,0.0024710794909930315,-0.001469420636922665,-0.0009375934028395895,0.0012670785885833522,0.0020894076211758765
0.001887407545597702,-0.0024278359579928024,0.0006340759134542901,0.0002651018350530321,0.003052744393055555,-0.00020990614557057696,0.0028272334932726738,-0.0019270160717968579,-0.0005292079013321649,0.0003084495644773799,0.00010776021715555905,0.0008724403956927787,0.0027428838560329028,-0.0025255481773852075,0.0027934634698612796,-0.002883632408948136,-0.000429379347617119,0.0010004364554469442,-0.0008079156550690588
0.0014160880812609058,-0.004186866739413545,0.001448163459811004,0.001587576320205159,-0.0010694674481816118,-0.0019774576472175566,0.0004104337325380123,-0.0014282069338760722,-0.002614988930556577,0.0041952308015951395,0.00343430270871177,-0.0012284496286180658,0.0023374560194373054,-0.0005325734612876958,0.001235969483183385,0.0020455689019646967,-0.0030947358951451944,0.0003194936416948404,0.0018027095823160487
-0.0006537127611986999,0.00011762046629468699,0.0022932796347075596,-0.002608549440995874,0.00045539849584232996,-0.0038815933251674564,0.003978052128969174,0.0023136903985530965,-0.0014373870532792847,0.004217100489728925,-0.00011636087877437544,0.0013508242717377601,0.0017524320923252483,0.0004633766421651643,-7.223926385675717e-05,-0.00029586384507962883,0.002706470787254568,0.001552487662388033,-3.226380609634285e-05
-8.235503180358515e-05,-0.0019947756215482277,0.00020336671967255594,-0.0020952553870064654,-0.0014994944178555738,-0.0004191068123665658,-0.002254986993277883,-0.0002450434697066183,0.0012762410535532838,0.0011796678618504204,0.001032794737527851,0.0005223168470412626,-0.00017513466095604114,0.0030710128691365675,-0.0008441515587544612,0.0010288705166409712,0.0005282639642576429,-0.0011754728621782239,-1.609011081657459e-05
0.0019259542274652252,-0.001198101850581567,0.0019708571500222337,-0.0015422899196576737,-0.0019043687285001261,0.0018704386574460803,0.003339215508288649,0.0022538540778581587,0.002930004701866217,0.004664112357141684,9.636105280563391e-05,-0.0058304513015312465,-0.001818023431691807,0.0017455689979360813,0.0034343895640876216,0.0002807959298192803,0.001355936256793613,-0.0001496794582776194,0.0003674506830167182
0.0022518274797316976,0.00027235651532653954,0.0007369409013383392,-0.0014394664979523284,0.00076798551902139,0.000530312464974863,0.0029016676850890767,-0.0017486689997972251,-0.003686661224854244,-0.00034054035018179287,0.001565874978648927,-0.00023245915660645422,-0.0030507905563115596,0.004181535783289706,-0.0025914383382857355,0.000398481789815066,-0.002675293937032065,0.0018653537113203606,0.0016673012658930068
0.002566464118230875,0.004506114010706232,-0.000781239921317395,-0.0010268070847822897,-0.0029638003454466834,2.6258683949292555e-05,0.00068943009635363,-0.0020182114808492773,0.00018275859292447085,-0.0017129270427367483,-0.0007155115747989953,0.0001528553314550998,0.002107328091035434,0.0006081138919705748,0.002035629508668193,0.0009392499841927167,0.003035311833800731,-0.002844284740048498,-0.00011922313498944717
0.0001821600707674189,-0.0014470616528907197,0.0012319526074744474,0.0004403676309434877,-0.00021605247248012758,0.0012401760822805868,-0.0003660557028726998,0.00013165874565606821,0.0023377222386519016,0.0005279681802377182,0.004156018723710669,-0.0008221085812377218,-0.0030398334351601068,0.0001029902585843734,-0.002288098036740945,-0.00113755948856638,-0.0008315123601913405,-0.0007470621075075301,0.0011464241118939614
0.0013488913613084138,-0.001839237444445818,0.0009838499097753447,0.0011138970112574305,0.00042822885959437523,0.0005607425059227619,0.0021798401710841045,0.0035936653016873776,0.003326014555058932,-0.00014765744145774694,0.0015117103322284543,0.0018900323411251642,-0.002493275786664298,0.0030800917000908565,-0.0003596284574252505,0.0018631460950076695,0.0012460006794035295,-0.0027322626987926163,0.004346925359052296
0.0027491679579643865,-0.001910213671794212,-0.0015615321627402473,0.005686535046508793,0.0005485791816151037,-0.0016073265860760977,0.0006885231498618391,-0.0002945612434831684,0.0023296116858107217,0.0007554145077138996,0.0008485625425950237,0.004004529097700713,-0.0028284006731539887,-0.0017111749161257098,0.0037307759535197865,0.001332199802872684,0.0001490258333821982,0.0011599117655869695,0.0013169582126040765
0.002191845440649746,-0.0017249163068993611,-0.0020352891560580745,0.001668054839424819,0.0013121761553174767,0.002875700233713579,-0.00028040982279027446,-0.0010058661891017544,0.002795785323291669,-0.0008872038700108772,-0.0006742566010845348,-0.0008318857463042642,0.00169097596481458,-0.003499603219290891,-0.0009863331645429958,0.0059626352035537285,0.0008729935650784577,0.003404796262087414,0.0034838259960713438
0.00015004259647777575,-0.0010417871877099992,-0.0013217254548857943,-0.002224277902264339,-0.004421615697079495,-0.000306017563368399,-4.715760397824894e-05,0.0004796434271560706,-0.00046291827851563784,0.0007435449527697953,0.0019369836002696953,-0.0019478440901925804,-0.0004483666215563501,-0.0018386112066647636,0.0008096056583109942,0.003322323345663085,0.002552792748871208,-0.0006649820295542199,0.0012312023697145784
-1.6445663759462178e-05,-9.134284670331828e-05,-0.001204288299562554,0.0028740467124469264,0.0025038878086399057,0.0025395074544063705,-3.705503721168446e-05,-0.000810310889654547,-0.0031330175015027526,0.0018596365206018407,-8.361546789293928e-05,-0.0016776672746767918,-0.0008854527490004163,-0.0026359085619413465,0.000338012458479113,-0.0018730549283270395,-0.000617331879647816,-0.004753849967732839,0.00632852151514574
0.0023252784790059352,0.005155460479375269,0.0015352115082463023,0.004124178750115455,0.002151474295501831,0.0015470102198340786,2.6680456197487273e-06,-0.0003726113720655507,-0.0017288399324428608,0.003559167514254643,-0.003060571027601926,0.004485976675668509,0.003959646844434755,0.001313547471465015,-0.0014838383323212301,-0.001336295202329651,-0.0009407563687195989,-0.0024926979193834855,0.0029642047877322295
-0.0018038788623495029,-0.0011553109972000652,-0.002287959099915702,0.0028121871811559373,0.0005261705449627219,0.0008467173153576246,-0.0007865073627747284,-0.0020657196361859092,0.0007792452248588085,-0.000981967285928074,-0.0008170647184963151,-0.003777037721773028,0.0008041597982101414,0.0037235101469955565,-0.002617670434816028,-0.004984812434767028,-0.0009122920625812295,0.001042319491612738,0.0020559096586473505
-0.0028105652541616124,0.0034305132459448466,-0.002104824929784197,-0.0017166598831384434,0.0041469652851927035,-0.0001693121388035499,-0.0014021483052317184,0.0018137520517593306,-0.00266886785077514,-0.0050866422887249395,0.0010495292525141621,-0.002298843815050023,-0.0017194899079403837,0.0011191465584317907,0.0019180381622377867,-0.0017586013556643854,0.0006676487130447174,0.002240522056697092,0.000390254428995309
0.0025461838217224818,0.0021762227337340967,-0.00042322940731871495,0.0024843602312701898,0.003307488348435357,-0.0016966530925364878,0.004820612585092519,-0.0007196191399091201,0.00020410869987218876,-0.0021784453146336267,-0.0023700740671748557,-0.000183229074171512,-0.00235213918404909,-0.001211814818476632,0.0013045737443825587,-0.002090854188838909,0.002539386343395652,-0.002096522569968148,0.0008486476460599686
-0.002213408590921591,0.0012884107821178328,0.00116750933887215,0.0015674901177935923,-0.0005239809941933851,0.0005890875675297497,0.0008423090548565874,-0.0020224494600654046,-0.00019001190716110548,0.002750625189791308,-0.0011694883937291727,5.045945340247832e-05,0.0013175780781873162,-0.00019586387654443863,0.0016643328012012047,-8.436943743587991e-05,-0.0005758725979379614,-0.0007775276082008761,0.00465613733276761
-0.0006332854712240156,0.001647449995486289,0.0002376710746204529,-0.001584528823905967,-0.0022832855496839996,0.003596429827209853,0.0011412155836961046,-0.0001464945565831152,-0.0011977246155181302,0.000640258237182978,0.00046738278872466524,0.0018296108517114034,0.00041503823685287987,0.0010911501269359558,0.0009357085120303371,0.00028156308919053216,0.001155810213141936,-0.005259019399638641,0.0005237504681243971
0.0017047049824354386,0.003621706931227825,0.0007045917131146533,-0.0018180060708823922,0.00029996037511252155,0.00029763033523847046,0.0027199384641931725,-0.0009053108091107604,-0.00040867788815935284,0.003579937123534827,-0.002968128420291164,0.001748007213560648,-0.003264121254021776,-0.003567128378866881,-0.00014722744226007214,-0.0008931912924471264,-0.0021814629712967573,0.0006153325213664185,0.002430968941682562
0.002418351256779962,0.0015654469367338815,-0.0016222769254993707,0.001706193975424898,-0.00023739840436828296,-0.001196326203869922,-0.0031817394096562875,-0.003301841672925955,0.0021660555717875184,-0.0023865806167080233,-0.001942942168565004,-0.0006159663426346584,0.0019035406606120046,0.0002318282608108675,0.0027136879211639834,-0.000446166772290054,-0.00038107484975021054,-0.00280356666748177,0.0034680720916538247
0.001832688919353674,0.0006623696544736708,0.0001820543082088029,9.718859469988425e-06,0.0008626729449917658,0.0007972288427545994,0.0007011793216710852,0.0016271256532443524,0.0008373101590386282,0.0004980735374331295,-0.0032983328273519827,-0.001329894016548666,0.001169953350303242,-0.001181525937625818,0.0009849346603419426,8.497466217052181e-05,0.0003999748295573929,-0.0009055579507062165,7.474210764237576e-05
0.0008113222601927972,-0.0010383242181992707,0.005240969442100892,0.0025174824944534076,0.0035778548076297605,-0.0030241572648330977,-0.002282529942201644,-0.0018731838041041392,-0.0037048447531223072,0.0017175235464422455,0.001911011079414654,-0.002653568216249323,4.662542409564505e-05,-0.0020129175102830623,0.00028755982843028184,0.001778996187376447,0.0011592565050329727,-0.001078478261535006,0.00045092513118099084
0.005687749861808148,0.002518537954094838,-0.0012114314847721215,0.005529956521853446,0.001016329239691784,-0.0037196207818321852,-0.001568630185353513,0.000536523846588974,0.0033418027463045395,0.0023025098632742367,-0.0036499911530115093,0.0017284102651384794,0.0014834150094814522,-0.001445881678088101,0.0025228933785682644,1.698732821239199e-05,0.0034036306843497448,-0.0005233671689738459,-0.0018151198730086565
0.0018874194720848473,0.0023279022672279596,0.0036569906220522445,0.0028569145632543944,-0.0020103447578535853,0.002320197547843763,-0.0006700492900195886,0.0005964991595284486,-0.000334644224031213,-0.0009463664563879435,0.0013228060078392496,-0.0027044157743583972,-0.0003981861508041018,-0.003955069813328173,-0.0018729797920007689,0.0016235084338879484,0.0018301763857471566,-0.0011101616291303374,-0.002023608763563279
-0.001314621358069999,0.00034392819109478433,0.0016995654295317367,0.001001915780079498,-0.002363196270630747,-0.002156837491845615,0.004695742878511807,0.0019558595058734216,-0.0006594532431766414,0.001174579891587794,0.0011803052680606815,-0.0014157732983403526,-0.0016047200392023517,0.00032743010842671094,-0.0007108629914545206,-0.002168599702160898,0.00015254335172989686,-0.003944808322509249,-0.0010952391452332274
0.0006615596569754732,-0.001572612973209386,0.0009776838128142831,-0.002488812404288899,-0.0016899029036990738,-0.0007640014516194838,0.0021625760383539505,0.0004280292727909017,-0.001530362334387615,-0.0002705866145116918,0.001270599914559117,0.0006986650111507638,-0.0014417898130532365,-0.000163069541481667,0.0016040097128318122,0.0007061630362326262,-0.00013709739410129978,-0.002832576518484514,0.00036695166872040107
0.0029791882336937547,0.0030717352013601455,0.0036666142943460487,-0.0018688772675671177,-0.0030716053217913803,0.0062493516846455315,-0.00023676401833551384,0.0022718328022580453,0.0007035992479736816,0.0001964945496204734,-0.0010535318897385798,-0.0008144470230104495,0.0003579363588294662,0.0011501654751391757,-0.002662558008705669,-0.0005952061629380912,0.0022330735334991367,-0.0020202136643537095,0.0012692313626630207
-0.0007751164785952324,-0.001130829444420245,-4.374460026209973e-05,-6.624869678530848e-05,-0.004017936357178808,-0.0014032871970732213,-0.00047162269216767625,0.0034785778052650947,0.0009141109852972648,-0.001384633042578211,0.0008571348382189127,0.00034580179133721485,0.0016797537765340723,-1.8657073850737213e-05,0.0021594720452432587,-0.0019372178685039096,-0.0010039024437268824,-0.0012057075787381716,0.00016511162819154835
0.004704013468446886,0.0003058198424844847,0.000659323446755873,-0.00010056443169098398,0.000337772248011678,0.003577656665388622,-0.000495730337306974,0.0015600495582019176,-0.0010466002099800654,3.380473442551018e-05,0.0005215636442881085,-0.0006400807203719003,-0.00023838180506167533,0.0010705237153221252,-0.0021929491118316343,0.0027327378328926635,-0.0002119551049858263,0.0023158720796662277,-0.0016157218060021798
0.002307902172237536,-0.001637123569709466,-0.001717041529590416,-0.0023395388117584573,-0.00542835366752605,0.0032512077771537345,0.0001661217266618034,0.0001633987670785574,-0.00237447853405115,0.0006168347349267278,0.0019523816610686588,-0.00016469985137876518,-0.0009212619340628579,0.0015000146514942986,-0.0009829014184043418,0.00082174456650655,0.001212812226891098,-0.0012867161499660912,0.0003444970770139477
0.002788066655955179,0.0006403735636459432,-0.002919281377911905,0.0008123301933546218,-0.0027310236749270656,-0.003185891488769598,-0.003993171006829048,-0.0013657389194682277,-0.0005297495479222265,-9.337578908249137e-05,0.0023979918419641737,-0.0019094357503240205,0.0011623790942638876,-0.0015062148931664341,0.000538606797050018,-0.0033244194723471682,-0.0029308326736972212,-3.362538807720647e-05,0.001976873769551905
-0.0014868567757511115,0.0007366444803189778,0.0021274239063725094,-2.159763766526553e-06,0.003280394107270647,-0.00028832945643032613,-0.00022366398184296625,-0.0023343044909418698,-0.0002065458760897816,-0.0007188986616014564,0.0012786244037044417,-0.00013862634838702974,0.00431905141801085,-0.0008110360739235268,-0.0017542025532964363,-0.00025759389058317895,0.001139687504754063,-0.0006269919167473351,-0.0031674843658907378
0.002094871074556241,0.0019518375315927367,0.00415915240610158,-0.0019367336956449567,-0.0012554717614689135,-0.001147943732482075,-0.00031381589574857303,0.0009652062521368447,0.002612129672064805,-0.00011699759378385614,0.0003023824402147149,0.001284094263992674,-0.0017725349574802935,-3.4348449223822566e-05,0.0025811067652999225,0.00048050691502084963,0.0004063217513421416,0.0030036779376724906,-0.002530416623259972
-0.0006124851127021214,-0.0031095600552097404,0.001661854521512602,0.002400528587779836,0.0027233233796233373,-0.0022256617606347742,-0.0010317005828030825,0.002304953366879079,-0.001992238221150905,-0.001151462383807043,0.00012331605380697024,-0.00154347525180075,0.0034945904737759084,-0.0008373214996435387,-0.0011560341063156041,-0.004963437872156126,0.0009590737650622843,-0.0003368165275921035,-0.0022466985972746482
0.0009759154391527809,0.0010410485001305944,-0.00032806122732260913,0.0021871738304456456,0.0004923031180921524,0.0013105205332535725,-0.000834024146147548,-0.0013040394191336374,0.0005476782650029028,-0.0002042780114906216,0.0004145273321135477,-0.0007316053191812813,-0.0013961264523199334,-0.001980822430386631,0.0009368721622968855,-0.0019923104850765863,-0.0025000393444530207,0.000786899011684539,-0.0010354683920194214
0.0009956170715604115,-0.0008698843831667972,0.0011446898382955198,-0.0013631475572092467,-0.0022279548823701013,8.20066120036047e-05,-0.00019747401846090164,0.0015948654148811227,0.0022664622839746037,0.00037577241164707577,-0.0015935331134886066,-0.0010993074705646047,-0.0005801344550308091,0.0019253320779603193,-0.0001517841315220404,0.0027715554255069545,0.003961167371483637,0.002449283319309231,0.0009494628188494665
0.0015153897237621028,-0.00011727038496432335,-0.0004442991356422006,-0.0030528703558698983,-0.0003418479370417153,-0.0031412878775368158,0.003014904436824243,-0.0029946666803579735,0.0016234557824085494,-0.0012284302126792084,0.0018628794585817605,0.0015967686385541945,0.002246209768723202,-0.0005066988694683015,-3.360995061179578e-05,-0.0012748090023921494,-0.00044863075203794813,-0.00461039205117919,-0.00040791299073087605
0.0023372354939301156,-0.001119218719537912,0.0002270436348589605,0.0014636841990948288,-0.0007722159463975531,0.002702215038435225,-0.0018509724154185958,-0.002423868294783144,-0.0021487494493045,-0.000538037700607059,-0.0011939651512679523,0.0012370911103036725,0.00032188441492973134,0.0014531590234480027,-0.004954932616534061,0.005415467739711367,-0.0009209224573307064,-0.0027712352099064294,3.487295199305242e-07
-0.0014519213903857033,-0.0004606272255040005,-0.00019685182498166502,0.0014951815668117485,0.0032831985069920458,0.0007486584369420893,-0.0020356912688938994,0.0005951743572236225,-0.0013394842924649274,-0.0021854016367167527,-0.0019406384743744088,-0.0014208224955027519,-0.0015753340060676157,-0.0003776735680277008,-0.0008546683138607207,-0.0011570813923185677,-0.00175768968464756,0.0007798201402944022,0.0011390387356394068
0.0019941307930648774,-0.001735407392800341,0.004149471280438989,-0.0008046646537174739,-0.003153730116481996,-0.003671878622883219,0.0014809742462863168,-0.0023323444268861368,-0.0016094466836608634,0.00296454225332861,-0.0031114965442454673,-0.0030070499756696266,0.000664448944351241,-0.0027803139978835076,9.528565327865805e-05,0.0001266404986972073,-0.0005772324127824835,0.0018705846127348364,-0.0019516355360877193
-8.969098282836802e-05,-0.0006085327328193053,0.0012849179457292323,0.0010242563649999286,0.003169415197231158,0.003643067181489371,-0.002694922138856327,0.0014133945436917146,-9.513982263030338e-05,-0.001800789072408021,-0.0021485220187753796,-0.0033299687139007133,0.0009220884836775624,-0.0007244992797168307,0.0011703731316428953,0.002327569867706342,-0.0017817141138069914,-0.0013553532047915953,-0.002369438971600655
0.003187848489376875,-0.0008463542719261712,0.0027932919598257356,0.0007661010798139182,-0.004044670295812788,0.006721018829664514,0.0015768743622371485,-0.0005587789720925937,0.0009100694668837476,0.0017587641541431532,0.0005590010050704466,-0.00037875318470901985,0.001631283211459686,-0.0011304063722445668,-0.004561970730366826,-6.196274037893413e-05,-0.0006131620707788628,-0.0007598921713817462,0.0019848238818828004
0.001121820766179509,-0.0009468645187761703,0.0005333124299636829,0.00037900550074984347,0.0030886680558164284,-0.0016431485448972162,-0.0002396708436882835,-0.00012368001274715946,-0.002496148165178765,0.00012614148436179346,0.00023277123692936014,-0.0010937479371994315,0.0017133942591992099,0.0006678572981206708,-0.0038149608957177717,-0.00021764002403976677,0.0001869911363355781,-0.002919270972862337,-0.002502734654885978
0.001092729981784578,0.00012523430716868155,-0.0010536805706784144,-0.005186383652007502,0.000591066114484222,-0.00022796003420431536,-0.0007358672348368424,-0.003935525410489228,-0.0014600887169548976,0.002974642248697154,-0.0009012756806056781,-0.0013504054776904317,-0.00036720742324932923,0.0009021640559324483,-0.00424975849771784,0.0008927824109477029,0.0016592500890658137,0.0015119244380653093,-0.0005786535065708583
0.0022944776270838346,-0.004045588409938154,-0.002115368946290128,0.00519236071007425,-0.0011899326050815921,0.0011225194324064618,-0.0010171329557729465,0.0007417912654470176,-0.0010423979871114401,0.0020776142661452245,0.0005377450638659535,-0.0011133227963646647,-0.002326681900231193,-0.0012632619359193905,-0.0010352262126347152,0.0021105113456771707,0.0005665741831989865,4.86573528286963e-05,-0.002221089435838661
0.00037393019054096535,-0.0004151516277889345,-0.0017396957003444383,-0.0010915723243972923,0.0009402685019456121,-0.003282906113177059,0.0025933532399328293,-0.002267744763826427,-0.0011269616374447765,-0.0021077278306985835,-0.0008662125263918022,0.003925110038837493,0.002457962669094764,-0.0005590600265904904,0.0007082058576496771,0.002016674090335743,0.0019151193761757115,0.0030655370636814244,-0.002946608987077649
-0.0006268748591110684,-0.0011443385589494108,0.0024964511908539006,-0.0007536365307902926,0.004664661030185275,0.0017056980659286075,0.004370736216169417,0.0033009243984157242,-0.002031255837781919,-0.0007567082591170953,0.0007938289455979185,0.002473642415418043,-0.00175818093202162,-0.001809968402465064,-0.00026181328724611135,0.0028282040553540516,-0.00031379608248150457,0.001401321046817718,0.0006338894466506002
-0.00041569780323922993,-0.00039316485459170994,-0.0025922727385125585,0.0025888034977321894,0.0003572159338442059,0.0018061094329203475,-0.0005579430697193075,-0.0008610860760444396,-0.0005867234194346274,0.0018033940835546563,-0.002167173078773445,-0.0005210589792322595,0.0022599061849174255,-0.003199390097115895,-0.004131689825546508,-0.005161474165035862,-0.0018221085022413195,-0.002238881578467609,0.0002397499474421314
0.001716510736083242,-0.00011731284423556122,0.002197433443512064,0.0011873430333163544,-0.0005123960025693434,0.0023196943431115567,0.0019495691855384075,0.0010363510546437303,-0.00039434435899462296,0.00023354793005561422,-0.0019871835663758165,-0.001459164631318726,-0.0010070531077171969,0.0004880213430575882,-0.000926419148623795,-0.0015383432072754318,0.00027810846942685264,-0.002153271492687059,-0.004103133825805435
-0.0015425903614072198,-0.0011444529841033683,0.0008168799282999925,0.00039722310555532293,0.0026368020126236653,0.0010043416206511266,-0.0012873497303473047,0.002659232601919377,-0.001120328632040731,-0.0013980583752487327,-0.0021784849292379796,-0.004873704359682348,0.0018622487364444477,0.0014413260194154815,-0.0031768356474050057,-0.0016293774927194826,-2.6430739649991953e-05,0.0010509549240109851,0.002000721273079899
-0.001765721385577994,-0.0003307984698248066,0.0003797845236415197,-0.0026810043190666267,-0.000871563453144487,-0.0018984976256189764,-5.9139880620666466e-05,0.0006712940230077579,0.0002042256418000504,0.0009190575285916602,-0.0015221132525789572,-0.00011409589557960344,-0.0006238981570810836,8.674203602138081e-05,-0.0006953446910859378,-0.00170618839559605,0.0007463203937325498,0.00013433699188414763,-0.0029911048043233185
0.003732295156895849,-0.0002407855429012827,8.197174897003362e-05,-0.0012425119245141035,-0.0008016699629240497,-0.0026874461831912677,-0.0034147335964563744,-0.0019376891709830671,0.0005395635285253116,0.0012122777969017105,0.0010873268940011938,-0.002342357436877923,-0.002752704079427683,0.0009047266382626212,0.0009331686281028676,-0.001665934115978818,0.0035964583928706686,-0.0011991601787887853,0.0008173947502481289
0.006344180737460458,-0.0010485906928580477,0.0011664614551409843,0.0005793960498937115,-0.0012929951650118622,-0.0028138246921140773,-0.0008644197555985794,0.0019100439239342945,0.0014969465457850405,0.005329598996268047,0.0006060983552062211,-2.451242741846642e-05,-0.0035634631297398705,0.00017415843790959766,-0.0030340402967294427,0.0018091481805485878,0.001740347846221492,-0.0022476012747717315,0.0010530806327560976
-0.001146255092747416,0.0003263529075590497,0.00011252659076318024,0.00024161150812286318,-0.0009349957001706306,-0.0003350961169550043,0.00019928033162872676,0.0004682939351698873,-0.0021807374378314546,0.0038213775091648717,-0.0031368409781252493,-0.0003424796754664018,-0.0014968250582263665,-0.0012269371485542331,-0.0009714041862333733,0.0012382089017591144,0.0036829764277605324,-0.0014031900431288947,-0.0015069789429223942
0.000406962602785618,0.0014636374502378091,0.0006910910992715402,0.0015800999570918348,-0.0015870715471293783,-0.0019987849787337936,-7.045860924820779e-05,-0.0010200929891156227,-0.0011148027169458805,0.00042579116745038165,0.0016297741401514285,-0.0029244223622658942,-0.004792689754352136,0.0008080670436902367,0.003302450998480682,-0.0003259199310286364,-0.00398269930127603,-0.003004509401180432,-0.0008484431789948219
0.0003466567159730592,-0.0009940981956835506,0.0008050345932641194,0.0014213537240393885,-3.178629727764497e-05,0.001233230422152977,0.0014747274616641807,0.0010830744358186028,-0.000793562758959648,0.0009384287283073965,-7.073839424220801e-05,-0.0033060607881089635,-0.0010931689368141278,-0.0010715626860784142,0.001301037575698183,0.0014057091131722116,-0.0013096832840437428,-0.0006788759996470897,0.001261456604225108
-0.0015558133225151813,0.0013899077931026945,-0.0020970325717423006,0.001353907677720243,0.002590345770351819,-0.0006526755994019805,-0.00014308109955731268,0.0036404485248215596,0.00021419015092594073,-0.0006145632127721475,0.002921508115845763,-0.0016235954863996842,-0.0016881379458778812,-6.768803273668697e-05,-0.0030697011606910527,0.0011881271991378024,0.0005260192367098976,0.0029685541083658198,0.0005243132055968855
0.0019260223003394583,0.0015759454324809857,0.0019141278500254134,-0.001525927269875758,0.001564059633986288,0.0006220158344942118,-0.002627769911735541,0.001880637641927688,0.001488372748144025,0.003047325478787187,0.00516164999975732,-0.0022308746303313924,0.003077782322841705,-0.0027396713321412207,0.002239896955784063,0.0036089871817531352,0.00010195413292324723,-0.003833864676115056,-0.00148088755427776
-1.364281616213725e-05,-0.005524041931836893,0.0020829491371405417,-0.0019401497317625184,-0.0005196195702675035,-0.001583341188718862,-0.0008114289191874454,0.00042751506624424463,0.0015003837135395223,0.0033369849515973845,-0.0012891222299030185,-0.0011552949005037994,-1.206218054544935e-05,-0.00041670779832247854,0.001077623516627188,0.002241290688393599,-0.0036966984178841374,0.00039613007641774644,0.001672880660106004
-0.0015859462723694145,-0.001974367431634969,-0.0002539755866129,0.00013498585535890055,-0.0018258066332655148,-0.0005972344798667354,0.0031115183551269723,1.6130580244183816e-05,0.002845497048239384,-0.0027403616356414745,-0.0028390579065058607,-0.0003542677769485012,0.0008576881619336751,0.0022864182911933825,0.003356679499649716,-0.0010512882481542778,-0.00033992186432123364,-0.000429253174290789,0.00034635601967567697
0.002057782975209791,0.0016103379813120345,0.0029741831489469256,-0.0007903746211481952,0.0011494952638567584,0.0007255910997679043,-0.00150407584457502,0.001168006433198099,-0.0009917971207708456,-0.0035760944981585185,0.0016701720530879966,0.002271478970464517,0.0014657302877603905,0.003053472509046356,-0.0015141833067911696,0.0038962959074240293,4.786131121433315e-05,0.0006331552057588345,0.0005835078580145143
0.004282671497170815,0.003307055463731125,-0.0012267768483844813,0.0014308682663276607,-0.0010551209949239801,0.001951031601862719,-0.0007170818955812518,-0.004065626324701205,0.0019295759180670714,0.0019387232677660832,-0.0004525511203129538,0.00493516276321402,-0.0014557967519954111,-0.0007561572880566333,0.0014720343142349051,0.0023010209087543513,-0.0014543881152219767,0.003914780596080747,0.00035276249479788415
-0.0010894941128219652,-0.0009131390846316581,0.0030989139789466256,-0.0009800104094395126,-0.00011276533208811036,0.00044628400565009175,-0.002602936835945629,-0.0002575398655812934,-0.0015065736198320214,0.00016798660482086238,-0.001246361239438873,0.0004290650103253963,-0.0016214122346725822,0.0017334944076851354,-0.0011732026947894004,0.0009711505192616504,0.004231244896709598,0.0008937704021818062,3.5562104321968215e-05
0.003342067006287466,-0.0014950694240621132,0.0010822091709289194,0.0016675048397178762,0.0012957741398714976,0.005399486189053869,-0.002290277985726092,-0.002744477219809099,-0.001240489204455691,0.0011988909832191285,-0.0031786024240438955,0.001509769850289052,-0.0018273702823042067,0.00091177081993072,0.0009869812256535053,0.001131428193354316,0.0013971707466079223,0.0015480514233752111,0.0020731274340555386
9.411919894183849e-05,0.0036738569820674877,-0.0008426465285112449,-0.0002836954551903052,-0.00226104778540713,-0.004142109527521478,0.0013557028349761781,0.0017330666412625126,-0.0021925721034607285,0.00021941666582306834,-0.0008620770891187241,-0.0010916155703593812,-0.0003265101791969132,-0.00021018925313073805,0.00028162887153489587,0.0008830867968940203,0.0006782163007574115,0.003378909286019233,0.0010621453055594903
0.0016527470523204628,-0.0014407299830753349,0.0006732972102046344,-0.0002567834216764523,0.0018643994669227683,0.00012480135107625174,-0.001420333400076916,-0.0012755089162381121,-0.001980815563594967,0.0005479577528785212,-0.00016977348789687258,0.004703453802668051,-0.0013304411741672916,0.0012448769868680979,-0.0008985589014474001,-0.0009115435266259272,-0.0020803052347843037,0.0016948436280377433,0.001096602658779807
0.003039313510737164,0.003137681420407754,0.0016793232823234354,-0.0016687695744963067,0.0024338227557178203,-0.0019335946684478618,-0.0014816106933814468,-0.0013955527280595738,-0.004278076806301559,0.00010331164844287611,-0.0026325726256960042,0.0014188274898115933,0.0015652285157133636,-0.0017605449432232753,-0.0009135498257433774,-0.0007992163714919683,0.004421854012906472,-0.0012211878880005248,0.0021946142250035086
-0.0023235378498933745,0.0006210551777484752,-0.0005998417061875096,0.0006205668600239554,-0.0007484471739795258,-0.0031131287596856123,3.666392158653348e-05,-0.0007318041707391253,-0.0005299033335760875,-0.0009820119860042863,-0.0015456425236893877,-0.0002504545811272731,0.002765383167493751,0.00043286748043671686,0.00095792632646451,-0.0013738532528743844,0.0017653959319350618,-0.0010319742576034973,-0.0013726722756740204
0.0008622304947248448,0.0025697973344707995,0.0013199922981122726,-0.0006929617850485762,0.00016323281828084721,-0.001440204814124957,-0.0034440941407407597,-0.0028189734545628043,0.0012250565013715339,-0.00046255595176679154,-0.001116453092786937,-0.0013602455593222196,0.0009510638355218026,0.002146288311561383,-0.0005884021533541766,-0.0027358812445129215,-0.0017095309862362978,-0.0026097092707505183,0.0009479967006482173
-0.0006069613246931577,-0.002496005943852684,0.0013243439020388446,-0.0006162829372818397,-0.0004257173021470748,-0.0002659076597063802,0.0020785852859923695,-0.0006550531272433379,-0.0014942459765709022,-0.0017608636941433518,0.0023763723458177792,0.0008665872135554129,-9.642704784907407e-07,0.0015010868144171405,0.0005052930154531888,0.0005163883777298842,0.0005924343818130947,0.0014613708354049924,0.0008253745961652436
-0.0022170016392824648,0.0016324938034395513,0.000899526537757987,0.0010897408459923314,-0.004755049310294349,-0.0001788431014525708,0.0011702794291132427,0.0009534400270679199,0.002879721827466037,-0.0006599339191867417,-0.0019801908157714406,0.0009772079505369158,-0.001631310351504533,-0.0021724198724584103,-0.0012984631582544902,-0.0011940803456363608,0.00440385839772479,0.00011662826490907914,-0.002875472295112872
0.0031920761297027814,0.005132553968882365,-0.0010256975908508135,0.0003045436052893328,0.002783625034019856,-0.00023913565715730014,-0.002289930401441005,-0.001035404212218484,-0.000479722328104194,-0.0018926494767658396,-0.0008323252856697649,-6.623512645109563e-05,-0.0012180634736238636,-0.0018284191019330388,0.003609636708573293,0.0026468841223473982,0.0032091363968106907,0.0011039106036721713,0.003143450649197047
-0.001786564682883182,-0.00038936836523917356,0.0007586334657147092,-0.0009053570137343692,0.0009032919591273253,-0.002488706930286184,-0.0020866791909308585,-0.003242456969344591,0.000789482795179137,0.0022791751693606037,-0.002848026076853148,0.0029892962226324787,0.0024511249597928696,-0.0025733296219460737,-0.0031183182930329995,-0.0008848982116631832,-0.004533844747767417,-0.00042575944347797564,0.002725703251758777
0.0019926765368544824,-0.0012943752438912268,-0.00138094481864196,0.0022449576866377524,0.005280511146049579,-0.0010716163160420296,-0.0041817986258325095,-0.000507212324115004,-0.003867748301891675,-0.0006426597885756622,0.005381749230456263,-0.0018568125938247082,0.0010415503042160298,-0.003313221120658803,0.0018002499335654503,0.0007086861172056388,-0.00017780890451630282,0.0024377884204757117,-0.0001494584496200702
-0.0007577547355941403,0.0007625845027637224,-0.0020154081041629363,0.0009856155395238607,-0.0020145515815804854,-0.002247699709723941,0.0019342773815467509,0.0018189682294910265,0.001018012929435569,-0.0018993161791324754,-0.0014764003722892395,0.0013251458233389053,-0.003233067543258568,-0.001587035006388239,-1.571294879309451e-05,-0.001583018239379088,-0.003946633666612355,-0.00025008843389842797,0.0011199175967398483
0.0008876614918001265,0.003239925009170453,-0.002154562299675965,-0.001072875040769218,0.00022072682055211223,0.0015350462442621402,-0.00019062891709043542,-0.0012699952408714845,-0.0016480203262299656,0.0030239781482898644,0.0014568987082494848,-0.00037043852851550513,-0.0022078464223149728,0.0007830831273650084,-0.0017174177831702248,-0.0014827915560094718,-0.002590201865011301,-0.0003103195654271664,0.0016264561936136035
-0.0009112539715604632,0.0006165091787962465,0.0014932344503290548,0.0016163719072217464,-0.002964828252078282,0.0011055051419294833,-0.004018235539007476,0.0001567614831386656,-0.0023705536511888737,-6.54740558490229e-05,0.0011357271841694978,0.0027265096872288504,-0.00253302567647102,-0.0009146174050058365,0.000290531813748832,-0.0004742468191296705,-0.003558920299774337,0.00026109515815748356,0.0007674366602768238
0.004065344777407985,-0.001059398616172646,-0.0006709446132684419,0.0008216382868265328,0.0019111297262298852,0.0009101847976654883,-0.000784617830450657,0.001236338180033883,-0.002157353010425885,0.0027064176305145508,0.0030144192648276363,0.001166779397578215,-0.000951647851674531,-0.002906322276272359,0.0005771425134743207,0.0004522442065142035,0.001323056182164537,0.0007442747230023381,0.001910695778893444
-0.0006969288373446143,-0.0009204239295182301,-0.0006141732203199359,-0.0028149315923619166,8.246387814718034e-05,0.0004209517514745701,-0.0008261941020401343,-0.0015992953406241805,-0.0008996460327363972,-0.0003463552660555473,0.0011663357797377716,-0.001610924936811877,-0.001678280602478753,0.0006031735156381308,0.0016175331408084075,-0.0019756740988592456,0.0005667604443432955,-0.001109374369951351,0.0001884728241594984
-0.0019025876134813645,-0.004563873750298544,0.0012465050417733768,-0.0008428115645415308,0.0005669325252390426,-0.0017376499421805222,0.00043432766199521367,-0.0009960479460523841,0.0012791769680326793,0.0013742158013467934,0.0002525726935601777,0.00078240436606851,-0.000280438229543709,-0.0007947009216974387,-0.0005409228954872512,0.00045974856977591954,-0.0025322316427512964,0.004837854344093067,0.002568411070487987
-0.0005504431956096412,0.0010517171618265094,0.0028671713928096905,0.0011438095752627573,0.002233694627814487,-0.003314205752396116,9.752300698973154e-05,-0.0013990728542700168,-0.0001921603888508092,-3.141751107696079e-06,0.001999978870474288,0.002594988874644282,-0.00409577321086758,-0.002234735878905384,9.210027744624771e-05,-0.0013594655792897956,0.0009337149068809235,0.0027797354927050827,-0.005193460141918725
0.0012618597358430971,-0.000140030575484985,-0.0009425473275025775,0.002235355796456481,0.0024602952069170785,-0.0018679049518782766,-0.0005145565494342776,-0.0009891853984870579,0.0007840660723568558,-0.0018560330877799096,-0.0020417532851548137,-0.0003581809375775401,-0.00022479358083281656,-0.0023110408369977757,-0.0016175059313872362,-0.0005138030322708238,0.002209163897040816,0.0011288986991232354,-0.004436722621481801
0.0018026887525118087,0.00037448825489901967,-0.0009277670779045398,-0.002219903569299986,-0.0015600187132140096,0.00027511024326828417,0.0021049191829530293,0.0024218601855545445,-0.0032548542087245773,-0.00014735473418538207,-0.0008354417147911611,-0.0004658933328702544,0.0006489276975955259,-0.00071683431717676,0.0016658210529932862,-0.0011250882470672146,-0.00225416368610611,5.266244937834038e-05,-0.0009622216855247222
-0.0018387285517725011,0.00024679641302292795,0.002835308931790561,0.0039489802709767536,0.002275108745978104,7.550262806382992e-05,0.0005696653554051101,0.001961769064879694,-0.00024278135750127754,-0.0022043481070406607,0.0040632621688162065,0.00018162425299390214,0.0035909589240049854,0.0017284623369400725,-0.0010554104522275231,-0.0001806360350090959,-0.0002267309627531623,0.0016348762032990128,0.0033299485984992546
0.0013602501923020126,-0.00072506479540615,0.0026192750164255024,-0.0026395991076997327,0.0027105028299471683,-0.0006332655393603239,-0.0005034165387254094,0.0029815355764090017,-0.00045870039035692504,-0.0002819951435476496,-0.002183892015968183,-0.0001747326714476693,-3.697511938835231e-05,-0.00185978195333686,0.0007375358204353576,-0.0012625876071501632,0.002674667699352415,0.0009171615443419538,0.002260324364089016
0.0006577646468180457,-0.0002455349937098193,0.00047315562103406034,0.0005059247639165174,0.002467612848186659,-0.002694475074880245,0.00013819869580578776,-0.0004580488672070288,-0.0020582758964360136,0.0010624718715203881,0.0018738904875304455,-0.0019691214081679607,0.0009866581334208766,0.0013938859430085036,-0.002929320786281575,0.0009688080438313854,0.0021935510661185327,0.0016356921096403248,0.0018284867784540938
-0.002288623674683335,-0.00037610740236367486,-0.0010178878340731071,0.0002548802537457509,0.00036448067073687845,-0.001772855155318282,-0.004184393946024776,0.0015335150919424253,-0.0007293619532689167,0.0006863476221059916,-0.0020864565692303213,0.001911354926196403,0.0005499051380582088,0.0017158975930570827,0.00030630284985046246,-0.0028405937924173555,0.0037806473646801444,0.0015314012384525706,0.0017342816811406398
-0.002891820794452665,-0.0016487741000186051,-0.0032616980290035647,-0.0007217059608832649,-0.004955277304572111,-0.0023736802116231448,-0.002075166193963336,0.0051500211039988515,0.0003859688394194829,0.00018084978075168,-0.0002582273281384506,0.001493324007436052,-0.0016919181753206733,-0.0017384297326396032,0.0005807416532723315,-0.00034942109840815265,0.0032345150118121883,0.002217167615448629,-0.0007960182002558244
0.003116279137457002,0.00031429526007566193,-0.0017554490340350574,0.0029379524472583204,-0.0006585996402777751,-0.002558791119237241,0.000185309256381725,-0.0025938738739945994,0.0017186739585610448,-0.0002981453656441373,0.004571911418461891,-0.00278976151556687,0.0009668896900295178,0.0010347551998850647,0.0011699183156463119,-0.0003931205702840618,-0.0040508218118023645,-0.0016101475226453857,-0.0006650487216618033
1.6651680290636476e-05,0.0025420980159522565,-0.0008563459321496457,-0.004036614094573648,0.0005248215600201111,0.000199845076599667,0.0023008886953799156,-0.0010574834084510615,0.0013043243320841366,-0.001857747370874461,4.887844795304306e-05,0.0012285794306309019,-0.0013664873899713974,0.0007927494014246843,0.003407395817638262,-0.004787113402733173,-0.0014083659272209504,-6.813118637619628e-05,-0.0009572050895745675
0.0014643680884348243,0.0009758376842224297,0.0012798384975943764,-0.0004469273233514311,0.0011349210070642247,0.0014755421559075543,-0.0006085791031757628,0.00022857810179684217,9.804454456836195e-05,-0.00036610300909178966,-0.001274825848272867,0.0006173176863310791,-0.003146990944980358,0.0002738976015555732,0.0021316976518977694,-0.0028784601742664487,0.0003326068934654858,-5.276302444529331e-05,0.0006861690202102376
0.0023528346539106273,-0.00035340759548319875,0.004472604242484562,0.0025019288380443987,-0.0019140774101891428,0.0005786536927297753,0.0030165218913775294,-0.0017339654992241326,0.0004787644183840913,-0.00028375983089281236,-0.00045901732308448694,0.0014063247922661446,-0.0016126461300610617,0.0009088427460540375,0.004383156608836147,0.0014606313984365776,0.00022169058931869232,0.0015387339874282685,0.0009933409788913162
0.00431421354670739,0.00044295800790180364,-0.001497617800609142,-0.001259849992149044,-0.0021047888949745765,0.002428735488792524,-0.0032719920509770043,-0.0005753970696587075,0.000820102100898989,-0.00037483641552647583,0.0019427315160462839,-0.0024772683969957613,0.0004753553043751071,-0.00018456184191888435,0.0019076720440976277,-0.0014180375748550317,-0.00018815562064147557,-0.0009656016286905403,0.002847443221724618
-0.0014647231786741534,0.0028000220823214774,0.0031683042885087675,-0.0013633208849548975,-0.0030652745612397285,0.0012573236677022328,-0.0013521592118300643,0.0004330698573582805,-0.00028632440645734745,0.0022846771291585317,0.0009961456709831418,-0.0003858292102243177,0.0005561717156136519,0.0001339648274430204,0.0008937152149170628,-0.0014767987140336634,-0.0023694042579739403,0.0003863426970521962,0.003653748934387002
0.0008986148773162811,0.001721588098769747,-0.0008521361912016562,-0.002911857436658592,-0.0005713745996733194,-0.0010856336509445393,0.0023544670032586692,-0.0024489813043786462,-0.0016021188631547582,0.000557726885845887,-0.0022362133755274415,0.0015501984050070466,0.0008577484323078192,0.004427888190936484,-0.0012588223154568726,-0.0020601693554781397,0.0004953390472613273,0.0014679595761984872,-0.001467993762255856
0.0014512380876241467,-0.00029717917125300717,0.0009327258653500968,0.0021559198496086114,0.002992973577326667,0.0018487881091785925,-0.0016580424772314273,0.002327910804796352,8.762616808787677e-06,0.00019987964080720382,-0.002016268041034917,0.0007021906593637357,-0.0002449311924312507,-0.0025705157078342636,0.003933256987661543,-0.0011804367724962794,0.00041175236220742766,-0.0016688636274536013,-0.0019900497067645694
0.0007511957048433777,0.00030488687330519013,-0.001079919983573685,-0.0006153604033302817,0.0004976355487095533,-0.004066486579141703,1.8777317294370902e-05,-0.0006871901574936549,0.0035276801561085714,-0.001978713560779974,-0.002936585627779023,-0.0006345162947186328,0.0025469465222899015,0.0012009672493359092,0.004998161591569861,-0.0015962775527743004,0.00028131310159926583,-0.00042933632261041283,0.0005410485900054187
-0.000807292263625296,-0.0026336873775198457,-0.0008749699141295192,-6.304211542566002e-05,0.0010122509919429615,-0.0036737443177464802,0.000980143848545687,-0.0023694116453147128,0.00038518942487120097,-0.0013967725702513608,-0.004029712611190567,0.00045364494102872105,0.0022212757331128586,-0.0017372394587191074,-0.00035177431553415784,-0.002601771450421017,0.003208069765982147,-0.00031006491015998403,-0.0005019254435954889
-0.0008176123856339364,0.0019147094548279699,0.003235769459405787,0.0004807679064848531,0.0014650098257504819,0.00017632240617644583,0.0001652793674961842,0.0008904791616602729,0.00185005935714652,0.00035733230208502385,0.0015289618296423248,0.003202605806115043,0.003504082407894809,-0.0011113793698404306,0.0015848440289968088,0.003162782352382409,0.00031550517560193864,-1.753554434597407e-05,-0.003707812971644515
-0.0008553305519494472,0.0044679859518995954,0.0029983654484904442,-0.0022767639414329756,-0.0038358977467492163,-0.0025131476931826114,-0.001146107951767168,0.0006111443435221401,-0.0004496460393754031,0.0038819334116670934,0.002440100905903415,0.0009733662758403465,0.002934517617598619,-0.0008718134267556772,-0.00238197778582426,0.0027410027243084025,-0.003542479459709008,0.0013282348355508654,0.0006418130065396467
-0.0002896364208147018,-7.531211632644496e-05,0.0016530588509938754,-0.001230242241494224,0.002587368712523366,-0.0006290297666899241,0.0004369081395218745,-0.00244416563213716,-6.788698500050693e-05,0.0020059228004204997,-0.0024304343833210598,0.003257002785297316,0.003456456068210465,-0.0026093971710451436,0.005022958976811693,0.0033456694663249248,-0.0018362317730152232,-0.001314386487573467,0.0005316243458815012
-0.0013510549625758777,0.0018748645557828153,0.0013022916421046452,-0.0010134226191239118,0.004266976747431196,-0.003193730880547064,0.0016755551864637926,-0.0008812854012709354,-0.0009843042572257777,-0.0027619154061530784,0.0011967022017368978,0.002789519603304827,0.001626369391330015,-0.0015134593995336533,0.00022940485665426646,-0.001431402627914155,-3.534241927106424e-05,0.0007655110016465208,0.0023378832207609124
0.0008012493395056764,-0.002090878426643513,-0.0014112587594072657,0.002864716895368672,-0.00016435297288977852,0.0023770273696039406,0.0013888042659452621,-0.0009455098522617051,-0.001336116971826567,0.0004931534891010297,0.0005278558555935257,-0.0014228571253880674,0.0020432169650612024,0.0016478243567727186,0.004940771449923079,0.0016899792356081065,-0.004334875858278457,-0.0018110812952655945,-0.0018577685173366753
-0.00030924117736140576,0.0022206420938508616,0.0032456108120525774,0.002321580148029539,-0.0008877417992920225,-0.006426869350997266,0.005222010933820115,0.0003463002128045324,-0.00018586594632265903,-0.0022808273451793756,-0.0018379444988592742,-0.0013982592978711672,-0.0009527481309262292,0.00048201617106669926,0.0004432123358738066,-0.0030453067767763175,-0.0022957915509510813,0.0023990152502153172,-0.001841688498562041
-0.0003220978655258344,0.001587155010802879,-0.0005244429186996652,-0.002682219057874655,-0.0016802587180552342,-0.00025429142129664446,0.0024634221755150177,0.0034887617690215794,-0.0017593003994828419,0.0015877321454645507,-0.000700038929682309,0.004097999944129411,0.0027528082446805343,-0.0006980276074973285,0.0011236994185617375,-0.00120941846463919,0.003171871411639165,1.4610175959574347e-05,-0.0016473695995414001
0.0011062684246332475,0.00022848470287944485,-0.0016023779813183195,-0.002579520185416243,-0.0011200788543267901,0.0007736113683865253,0.0038242738525569903,-0.0028521795145108786,0.002046691938511975,-0.0010835207433266807,-0.0004479231603210112,0.0029516793345766607,-0.001966517539074766,0.0006742838207925654,-0.0015112136974567113,-0.0007744884949186226,-0.0032179803852619366,-0.0019330296521572535,-0.001100553682702252
-0.0006150431202007444,0.0013293094320192607,0.00012083899636802758,-9.090700887612792e-05,0.00443052499417474,-0.0017163866595663261,-0.0004921159492701127,0.0005420916462143657,-0.0004962721810742593,-0.004510045663772406,0.0002849749739509667,0.0008332032913344425,-0.003623427883945907,-0.0051806741570527195,-0.0023794414230351745,-0.003303864171792554,0.001524960364257918,0.0008394891196071536,-0.0025789892869612675
0.003758733292071212,0.0036021873252011687,0.0019144278217272423,-0.00043124881495969415,5.35555309117413e-05,-0.0017254368759850101,0.0019832686317551814,0.0025335450726688942,-0.0004234482309740332,0.00350917830108617,0.0037244427108040104,0.0005585649913477348,-0.0005140603380455908,-0.0026570769920931854,0.002954244695515699,-0.0016215933829742638,0.0012859050002178363,-0.0017715495882504946,0.0016442124158182895
0.0009884628231551138,-0.0002723427885269142,-0.002415707627570551,-0.00334136054734427,-0.0026173943404238817,-0.0017323324946842095,-9.987059709429746e-05,-0.0026584698467515436,0.0017562202927319753,0.002050356851507766,0.00018039785900993724,-0.0023494231206732147,-0.00017012904829051106,-0.0032128477638856145,0.0028446226984338583,-0.0009520472326490959,-0.003357442466187815,-0.001651818002280963,-0.00203649956484446
0.0009448961539774021,0.0005012158623547407,0.0018573627707636352,0.00011779999825848143,-0.00279405426231588,0.0017751720048007251,-0.002309525619669024,0.0008664263776000804,-0.003096158853182451,-0.0021630680305643104,-0.001755828884172533,0.0006228415324017661,0.0018634237522562375,-0.0013719307328410699,0.0026518033951922937,-0.0012652880416217948,0.0036522852560745534,-0.0012412913594286306,0.0010090025796624129
0.0008538829076999159,-0.0006743354389285376,-0.006219303813634148,0.00119071029970567,-0.0034844065154806337,0.0005312665187920402,-0.0017588848078622214,-0.001621239238328917,-0.0009271270330691996,-0.0004149500204331792,0.004654066749708906,-0.0037579497394219503,0.0035638701841644157,0.0034258259009724112,-0.0004959801154760386,-0.0030781970592731697,-0.0005008088982356563,-8.781449770066582e-05,-0.0032436302011055055
-0.0008492658858139604,0.001303878445991611,0.0008100280993983673,3.77126586476699e-05,0.00046828697463639936,0.0004200248758748183,0.0016117563674841052,-0.0013419898454380599,-0.0022163698242179306,0.002948167297587623,-0.0003293624642869111,0.0014313068844447312,0.002582836243483798,-0.004749423898709871,0.001774482976663352,0.0009248914014350903,0.0018855849967245966,-4.1935704463408835e-05,0.002488227445329174
0.0034455799031585196,0.0008636178913628952,0.0007777364718074187,0.001079970099851877,-0.0010694669371325966,0.0008375129370062537,7.368254477927465e-05,-0.0019231356289761046,0.004061884383428163,-0.0007950911843220054,0.0017960864921848399,0.0010622681797554181,0.0011214817367724166,-0.004554098826156841,0.0034584676162601005,-0.0017674325772765198,-0.000750206622562368,-0.0014083717198950696,0.0019604421625261373
0.0017655264576917629,-0.0022207541984589872,0.0015472896328721513,0.000859300292861863,0.005532005258719921,0.0005076909316782345,0.0020263142291033383,-0.0030605863996323876,0.0011451869471331227,0.0024747321804453226,4.370976671070913e-06,-3.3133637009474736e-06,-0.0029763073943087004,0.0024267482894863262,-0.001898105286060834,0.002888201117592451,-0.0008428972861971416,-0.0010163248854662358,-0.0018074158693031086
0.0013642910090880488,9.929340470971657e-05,-0.002202516041186871,-0.0004126806254405225,-0.0002360569136900216,-0.0012167226413047705,1.4630935398539019e-05,-0.000744773852275923,0.00014696536232573713,-0.001602572563806621,-0.0015471257215666416,0.004465393745117767,-0.003026041039617028,0.0028071403483620593,-6.131023734864847e-05,-0.00036157792317492954,-0.0003707927387918448,0.0003049026158507711,-0.00022713654227983553
-0.0016939968593381197,0.0006920794800049308,-0.001410789057717144,0.0037783235127521234,-0.003182592901123857,-1.1847728354766983e-05,-0.0027574636335414393,-0.0019581411361367916,-0.004016130708083739,0.001972123829938764,0.00070993944487665,0.0013520952537232225,-0.0017720675283552888,0.0013011120187133266,0.002145299326883837,-0.0009337425394473112,0.00076642071633346,0.0019724670642215915,0.0018636226650842864
-0.0002614220436254279,-0.0016250833106946942,-0.0026867044467742724,-0.0016414194492965152,-0.001276801211686053,0.0012345461922401513,-0.001872029632184426,0.0009874696967755818,-0.003348209719727742,-0.0008696750398398327,-0.0015015097028546276,-0.0015528500476842462,0.0016675611366472008,0.0023445535092442345,-0.00011069675822201152,-0.001547511595768832,-0.002716768331064013,-2.3033359625562614e-05,-0.003033136942923971
-0.0008013654881953141,0.0011188667876482078,-0.0013937627845776058,-0.0007955844492388324,2.5698266345054627e-05,0.002074931551706588,-0.00442989040959213,0.00026375700444423853,0.0036714902496073256,-0.000910911316830376,0.0004538261231325457,-0.002097299304889471,-0.0007675840786309929,-9.193739577789881e-05,0.00014236253748035494,0.0033579933428126347,-0.0004529637648893472,0.002851523484324883,0.002075321114745892
0.000922603932653168,0.0025641312169377485,-0.002167983721503855,0.0026732287610341447,-0.0036742602285293456,-0.00021899172442086225,0.0002621519634249369,0.0005391851446587005,0.0017902110189097792,0.00038530045032354965,-0.0031628727992536352,0.000504952303486416,0.001161737251456926,-0.0006998197437350823,0.0012941044957405466,0.0025499022551478913,-0.002506898362516782,0.0014661445917141622,0.0003892357260672268
-0.002787640427614225,-0.0010101611515357766,-0.0021993571679890305,0.0007283598322567252,-0.0015930435261748979,-0.002449937953013939,0.0003441148864423076,0.003475122672886686,-0.002469208079938858,0.0029400807460202745,-0.004481793495723502,0.0021091790174901912,-0.000879594821286799,-0.00461516459405486,0.0013891178751125979,-0.001495996927755352,-0.0016423985885023376,-0.0022584703493655094,-0.0016262698879022143
0.0011878587058763252,0.0025394491159416244,0.0030191814668850364,0.0002718592101934106,0.0024595994645723283,0.0010382132293226822,0.000971184058132351,0.001391563070904133,-0.0018154265939829648,-0.000858874444301099,-0.0032368513688071578,0.00023335908484080792,-0.003584092657078103,0.0020758752091913505,-0.0008617116105876151,-0.0009475096502170561,0.003747649971599058,-0.0027125078312275532,0.002422903422816211
-0.0005867634291319693,0.0010121119072344456,-0.00026308128776161995,-0.0011723658912599056,0.0015705615818089862,0.0030064905830654446,0.0009781428984661558,0.0037399894518857155,0.0005107688749137404,0.0018572372463408543,0.003254787911362702,-0.003348981375866167,-0.0025756262002580785,0.002427029554521724,0.00019962046348388763,-0.0006933167115816416,0.002621551223373643,-3.0587310725575644e-05,-0.0032682045098237546
-0.002670146968843128,0.0013599938980929651,-5.470399355436652e-05,-0.0019339107536498327,0.0016512326409919079,0.004597461452355302,-8.048988949341768e-05,-0.0025353734987599067,0.0009975836997384723,-0.00014125131252105215,-0.0009657811034628031,0.0016172442742904533,0.00021747977755112776,0.0013333392083752246,0.002161683086933508,0.0020605887978992405,0.0007250113042111785,0.0003181242324686331,0.004789719345610749
0.0008470475939496345,0.0004447710622483245,0.0024878182032787356,0.0014153365792695808,0.0014787187886385817,0.0022562873386310577,-0.00012531071000188962,0.0003030801314616999,0.0008510586578543493,-0.00017668354619154,0.0021961628652034356,9.744901238733532e-05,0.00026193333787812495,-0.0007129061509128922,-0.0034894020576413266,-0.004326871308752916,0.0006064441517116559,-0.0021058944443903636,0.0008027080688754639
0.0007529474965275795,-0.0040403271526233695,0.0008561330262486454,0.0008149271036039514,0.0005021535189999325,0.0015781250936700289,-0.0018952313050246174,0.0011417644969275397,-0.0017139740313133738,0.0008090522739274264,-0.0018217644090129785,0.0013099635021107511,-0.0030418171558349427,0.001288248176826091,0.00024741622995162185,0.0013600309079623706,-0.0025348727768051684,-0.003608936261343085,0.0034455160094394467
7.473758972922537e-05,0.0007879402607106977,0.0022248106316141523,5.0143822010625906e-05,0.0008983424619339744,-0.001612136935840058,0.0017839627909121234,-0.0002135962131126166,-0.0018151141380027497,-0.002244701377309557,-0.0014799115552972906,0.00010354897167592075,-0.0017228392629028183,-0.00348118827307976,0.0019043740992525655,-0.00027411752935842346,-0.00030105484507270537,0.00027726261643874474,9.667492199196415e-06
0.0024433934580405338,-0.001600710600201475,-0.002701367273388083,-0.0005558069601735525,0.0006212238734951263,0.0032021123323303586,-0.00011379136361936904,0.0021715809313659815,0.0032398301938709162,-0.00045336059260796626,0.00115041903226267,-0.0005095628508474124,0.0016996943070104558,-0.002347337049023273,-0.001898299398074377,-0.00042144697998591947,-0.001217687326529076,0.0018252784230632071,-0.0004079380872872537
0.002215252830977335,0.0008208804448561974,0.004179818389669891,-0.001025581249350324,-0.0028824503726284337,-0.0006145095789850791,0.0011069624604848661,0.0023821989807465533,0.0036388202937970696,0.0018164414398858571,0.0003665829128333077,-0.0012016022085405327,0.0011823680932606362,-0.0013935432279756858,-0.0015676012070457081,-0.0025669110143761264,0.0009377686988452721,0.003506225898255323,-0.0022568697823986492
-0.0007177084856983644,-5.889104888105747e-05,0.0011559019594428782,0.000588703753577859,-0.0012656758643297102,-0.0012707382100096197,0.002451714686089814,0.00024148080988604717,-0.0001374892729831779,-0.00042023164233912847,0.0013097991185406935,6.0688211963593135e-06,-0.0019520531972803095,0.001442782814443579,-0.000945430737308868,-0.003356274050723634,-0.003459702698909577,-0.0007891416726463056,0.0001773003167365875
-0.0005637884945272529,-0.0029699586307583327,-0.0013244383311912078,-0.00010831262112545504,0.00232354870979919,-0.0015344986291594164,-0.0004031532781145138,0.0019250001131090576,0.002684179482359601,0.0002889043196767998,-0.003416281313443668,-0.0031275815844457023,0.0005275049763348241,0.003728573028533575,0.0012733643276530658,0.0018569602934353814,-0.0006706541766141388,-0.0018258456434871715,-0.0021199664456099526
-0.0025606775493117943,0.0005330046235834667,0.0007694499519103034,0.0006685191849681667,3.518096001886524e-05,-0.000995909071653272,-0.00212029908402099,-0.004446898640036202,-0.0008760742670450508,-0.0027532990584053043,0.00203448452971312,-0.0021524266707155194,0.0023549859634875996,-0.0005258574303104371,-0.0016072374000320124,-0.00010764244406392282,0.0021862800172067227,-0.0019224136480237722,-0.0016191780411764559
0.0006296185924857734,0.001790840779277268,-0.00168436228502209,0.006550879811662201,-0.0010083771536515916,0.002801596412598929,0.0011885713984419182,-0.0003464843276859231,-0.0017383499296060895,0.0007791318396284699,-0.00013072726356496266,-0.002736446214270288,-0.003173254222965605,0.002091380392766874,-0.00045783580655220184,0.0004527823228132845,0.00014498262212720955,-0.0004736855909531628,-0.0009897692252041307
0.0013076601799368887,0.0027030626252551337,0.0007621859902516882,0.001302504124977194,-0.00040101487577518137,-0.000834364908705997,-0.0014991093701466258,0.0016771311232647579,-0.0033360263451095748,-0.0033229732199073986,0.003645531012323038,-0.0006260675223512921,0.0011758504311120573,0.0015485986647562724,-0.0009448556707031431,0.005526448828628314,0.000521915134291982,0.005181772127078662,-0.0005679239609893747
-0.00020764222677510628,0.0008510527986749505,0.001777371999052845,0.0016795818890314985,-0.001513717363945876,0.0014022089832757957,-0.000903607593445806,0.002522131566221677,-0.0011283969917342846,0.0020357526865362294,0.002488419575125514,0.00012005778513798773,0.002476926542371492,-0.002893855089862401,-0.0013033801950659734,-0.004332585222930329,-0.004618274497786779,-0.003888462771750119,-0.00011454789425593462
-0.001636870049105375,-0.005909406783280172,-7.643304990642306e-05,-0.0004651244181654862,0.004304419199503269,0.00064174547052438,-0.0027045073580676477,-0.00030687296071564243,0.00273141458987682,-0.0026118463010093313,0.0006853091397830088,0.004768825664075466,0.004708933226606009,0.0005072449026119122,-0.0007375795611671816,-0.00016359397176528295,0.0028986317278972,0.0012800380038773835,-0.003084026452407434
0.00034949707909440804,-0.0002654291364472305,-0.0017530036141912113,-0.00017347803153014454,-0.0010976424083563945,0.001404838854025874,0.0014900076972150886,0.0012589392016248715,-0.0007454260298624791,-0.0008117825303265415,0.0018524796826031491,0.001303107855638579,-0.001435176303265806,0.0035258185526640465,-0.0057945094983758594,-0.0003658460530990344,-0.0011208540626163194,5.124912206683069e-05,-0.00041820790316342163
-0.0013585416481906446,-0.0007077797365821245,0.00015406389916803025,-0.00025316250285562766,0.005418929558064318,0.0015065844493993006,0.0005966634080238084,0.00036787344853042873,0.0016792817396247188,-0.0005568300605702013,0.0005911190789924994,0.0010090908668546686,-0.0023863834341448383,-0.002673626897590558,-0.001494066717660888,5.6399390570744495e-05,0.0004502405471453891,-0.00040994529564623334,-1.0847319471610082e-05
0.002276736597093418,0.002485663665669101,-0.0018906845586627813,-0.0027809141646097375,0.0009164729972668761,0.0018703111874358328,-0.0006018457105334915,0.0009442710440168905,-0.0006837149173168006,0.0014939088428272446,0.0011056793535258278,-0.0008899249693591115,-0.002062948371955934,0.0017402806991188573,0.0008100762089538277,0.0038125748518562227,-0.0014078076058925588,-0.0033187254685965455,0.0010259428633749609
0.0008558932758896033,0.0003417140481223204,0.0006016133189132164,0.0015973894707470647,-0.0005379515638596347,0.0022233089145704127,0.0045253502981450824,-0.0032821189367226583,7.574941130854629e-05,0.004217861597877257,-0.0014001697878264546,0.0034473804403877097,0.0022869379286397447,0.002987066521074393,-0.0016852370534388985,-0.0010695406361640259,0.0016743887933128921,-0.0018186140135809418,-0.0025205239026712197
0.0032622849169807035,-0.004552144279111973,0.0007166630844777183,-0.0013174338410849138,-0.000702889597485107,0.002145960946520627,-0.001293442894343445,-0.0014713104073088093,-0.002255632048092934,0.002436918548561387,0.0007585260889376169,-0.00033672858421640833,-0.0008609104456693813,0.002438143079517752,0.002297206302600181,0.0025587873164712722,0.00010680576864110548,0.0006179068012215336,-0.0010238076448117624
-7.371226601591016e-05,-0.0006200061407497428,-0.0037489276507742973,0.00039093358444192155,0.000579148004583883,-0.0006594486287098964,-3.035212028776867e-05,-0.00120813036379086,0.0017929017751966614,0.001985373896872094,0.00223980037197025,0.001478726271640521,0.0019893515755590105,-0.0005010028799272943,0.0019470942680413009,0.0012686408917306614,-0.0013969730104056142,0.0006376529071953842,-0.0011143084161035401
0.00012264340889976311,9.515004512600667e-06,0.0034622104652568472,0.0003573353847523396,-0.0014165224902066035,-0.0028095636607114115,-0.00035646723948095174,0.0021328643987190686,-0.0022078384554628915,0.00121966338278381,0.0005903909111330743,0.0037188359480142953,0.001239098455615202,-0.0016441874826767637,-0.0011762882422493173,0.0009376269460562949,-0.001809476762304427,0.0008541806421101894,0.00010497507746058995
0.0008973215514402695,-0.00023346221643432574,-0.0028993535381499594,-0.0027145832766514184,-0.0005252734359129195,0.004241642195371181,0.006728182559409044,0.0058441123259576335,-0.0015712414352849688,-0.0002907367957272756,-0.002581713473144654,0.002306836289022859,-0.001046265092327197,0.001530074126319449,-0.0018431002587481283,0.0027808890092933703,0.00538761532980173,-0.0010078800927248563,0.002138528088381877
0.0008081826731144121,0.0008585196545618227,-0.0005818738999966869,-0.002872678840092458,-0.00018181429770949215,0.0007672722060683774,0.0022780657868514674,0.00369909651508655,-0.0007209710231837862,-0.0028058964614626368,-0.00037330224605161994,0.0031778788385854275,-0.0008689296817883369,-0.0012289487491525272,-0.00327750679524489,-0.0010874844034324432,4.322875690734721e-05,-0.0016198682766350126,-0.001972656202106727
-0.0029885884638199845,0.0005420274309123515,-0.003517103955035841,-0.0021968115992379716,0.002966057565273033,0.0013707156489289577,-0.0005637330029896369,-0.0019866886611299467,0.0029034697149532326,-0.0005802314657492463,0.00047318195662627823,-0.004394985314132472,0.0006614775520450485,0.002401419730619657,-1.8426625811319032e-05,0.0020051338699065874,0.0014195596435903942,0.0022199012828537615,-0.0007292990878362183
0.0017918800907967593,-0.003437232321392902,0.0011754074377240402,0.0031209637221377754,0.0033385925624170015,-0.0013988704076179743,0.003702083980082886,0.0009761536362513669,0.002818831280537556,8.725168294917303e-05,-0.000769153271071221,0.00017961521698638057,-0.0007734899332324898,-0.0003662970004147457,0.00028476210114261873,0.0014119706781526868,0.002103977534246873,0.002413756328649451,-0.0005163771081159895
-0.002195271665169272,-0.0023705152850187956,0.0003892502995393116,0.0015144286868597854,0.001172911318120558,0.0022077074176518477,-0.0025392457385756927,0.00033196661261083446,0.0005977641765776614,-0.002594767549958514,0.0012098198968764414,-0.0011320663933500161,0.0034661220146555488,0.0004253241365950044,-0.0010828344102107928,0.0003137769552154001,-0.00035803846931273345,0.0011571154931154933,-0.0034390119645493124
0.0019637582224762157,-0.0005447994800452555,0.0015897431176742777,0.001489858336366498,-0.001481016553750053,-0.001066180226072117,-0.0002485564240071782,0.00021982423796074294,0.0013229762156861376,-0.0005876746083576431,-0.0038697003850242796,-0.0007067968576306826,0.0025046553734386448,-0.0010070749192116688,0.0001827063030812112,0.00042560010572576857,-0.0013840528266749925,0.0008141166058851947,0.001967843744788852
-0.0017115173340548158,-0.001403832787276879,-0.00041550344336124774,0.0008411855809311425,-0.00029371660649438126,0.0006248969953464291,-0.001095410201143335,-0.0013450616165769978,0.0022867406487292958,-0.0014120190688329739,0.0017531849752927496,0.0012875338979084809,0.0036851377048264765,-0.0030949556188838473,-0.00019435794933229513,-0.002583068752727035,-0.0029886496528939432,-0.0016105469886897208,-0.004679707537334129
-0.0010852568260110152,0.0006209455067597874,0.000157067438889252,-0.0013385528538038185,-0.0003784889125810592,-0.0018240166278050568,0.001864235663448744,-0.0041974663072366315,0.0022307584746138376,0.0012279494145698954,0.0036684840607987285,0.004301128814597446,-0.0018445147882791004,-0.0015666001436825518,-0.00022331282120554164,0.00022721023515230663,0.0028639718633260555,-6.424713214441167e-05,0.0017537343642925263
0.0025327146024030694,-0.0012985288123181326,-0.0008872720006065242,-0.0015104418261757677,0.0020274499912705107,-0.00358414916985296,-0.0005389136555547258,-0.0010894706162524386,-0.00014329427876575365,0.0007199796194118341,0.004517502168589105,-0.00020431138813214637,-0.00047680375566415455,0.003358995636753474,0.0009193328365194237,0.0011724475520200923,0.0011250292773872287,0.0006568641336373722,0.0010634125187786944
-0.002926502202788918,-0.0003097807903235187,0.003067255660062197,-0.0014849301945369653,-0.0016849732995454607,-4.63019754690325e-05,0.0004505554012858869,-0.0027061278322469506,-0.0037004151027247626,0.00025411312138042626,-0.0005421971464448525,0.0032176495712707793,0.0002720868861221795,0.001158049657550729,-0.0010426898600945213,0.0008074558699246238,0.002646183444631226,0.0017803720753879174,0.00044581231988707984
-0.004042414440048005,0.00021355518300029795,0.0015065248181335405,0.001176601718043752,0.0024543504440623924,0.00011970656613046452,-0.001229325974895572,0.0012278023624986503,-0.0007361055136815681,0.0026546905672442645,0.0007861090425487898,0.0015396229064826414,0.0007921761517088663,0.003121391888434503,0.001926887327076108,-0.002096694348595068,-0.0017579639413785862,-0.0027443219603213538,-0.0009294970182397384
0.0005131719379880204,0.0005135076431532541,-0.00036088567664395487,0.0011722211760871982,0.001106796716996906,0.001395586066702179,-0.0018138800672093819,-0.00011052154976323985,-0.004476934286652981,0.0012606492861483437,0.0008515342691622931,0.002534639759173561,0.0006268957478923311,-0.002771097141181944,-0.0031772419213437503,0.0021822824297553704,-0.00041202542076521363,0.0010973286852569762,-0.0023537961714189476
0.0010321426609051724,0.0003720084421939904,0.0038862342573887728,0.004921165806411493,-0.00028797250958685004,-0.0002578202525114944,0.0006148594561306814,0.00012707427477597177,-0.0004880617899308584,0.0010291166461832521,0.0033599769792593873,0.0001873964407637316,0.0022281093580233404,-0.0020519184619836183,-0.002034158321985199,0.0036677234390959062,-0.004691749630268664,0.0011094463325035417,0.0009750627288371704
-0.00024955735726169014,-0.0022092102492890257,-0.0008005220926617376,-0.0022694992379275053,0.0012359879607797576,-0.0008757241596212015,-0.00021546825226502383,0.0025541584439579715,-0.0010854839754285655,-0.0009117008107383014,0.001197904094421292,0.0027647969306003805,0.0004887022019972472,-0.0025270209601418697,-0.0022677656229609425,-0.0023049640665299153,-0.00037322964074916026,0.002354556431505737,-0.0025633665766115394
0.0003921307529779215,-0.0011368765872525487,0.002167332060686542,0.0006031825951452594,0.0006432625619056049,0.00015334076601099736,-0.002887449840756177,0.00257185603646575,-0.0011004142480541411,-0.0007277007164743545,-0.0002563900933497805,-6.177295579540566e-05,0.0025362649758596608,-0.0008473693740330101,0.0013006727609612722,-0.0003396211651390424,-8.214042547885379e-05,-0.0029422746636048303,0.0004676641302905973
-0.0005540366769476485,8.36464297278361e-05,0.0015004353885487156,-0.0033368080495858364,0.0007319576908882804,-0.0033216535621212887,-0.0011231477606734,-0.0044906586886052586,0.0018737623193961965,0.0005527809662756849,0.002433126563029649,-0.0008507922275949331,0.0005577319701072918,-0.0011627567467153328,-0.0029278051009104713,-0.0002189841594292883,-0.0030290788993057004,0.002820318692521459,-0.0010923422312587893
0.001853112258137796,0.0009626760283279294,0.0007826653267199896,1.4160593051184246e-05,0.0009944153274451064,0.0026706000434096235,-0.0028078699269664083,0.00016239627110183592,-0.001859118159442127,0.000833717020974971,0.00293751026430901,-0.0004953701359204851,0.00015660173534708745,0.0017191022625313156,0.0032005657693009223,-0.0028435435423205227,0.0007383863319297586,0.0012197984648972548,0.0013936440090217004
0.0014397246884859341,0.004768705630270792,-0.000863063932748443,-0.0018075964391924535,-0.000721667912378248,0.000895495269236084,-0.0036974153516432223,0.00017670319509891706,0.0027527020123530675,-0.0012485322581040673,0.0006559690527915063,-0.0018383641456061436,0.002451872935338538,-0.0008433092371204637,0.0005063382691706174,0.0019512211255739132,0.001633158336970051,0.0017472969201275286,0.0036288539813651116
-0.0005649531183091845,-0.0012159056028226412,-0.0008041281026588276,-0.0006876076187120589,0.003005722454633782,-0.0019690266274748915,-0.0011071201924537479,0.0004974033554457275,0.00048633384536053145,-0.001001239042887815,0.0011333481156152374,-0.0014151598984381384,0.004465056100568897,-6.637934760448196e-05,0.0016480591794339533,-0.00013146008061027862,-0.0013298634367812333,9.993847505689143e-05,0.001081882074507195
-0.0013224001566585026,-0.003497466411525231,0.0019965542840105406,-0.005916978526823811,0.00039254961786202046,0.0004297203723306116,0.0007101891364149645,-0.0040846892353338425,-0.0013793873667341337,0.0033644861057964015,-0.0024289770220256154,9.230537059245615e-05,-0.0019244355028056183,0.0006912294334774763,0.0018531518617739711,0.0018104581302793206,0.0002244615788315477,0.0006926065495007382,0.0017366920844408714
-0.0028136369895101323,0.0015708550076083277,-0.001186436048988864,0.0021225842955779795,-0.0009494872959775482,0.0027262452837541586,0.0012300140465089733,0.003883848398410217,-0.0009247587191714395,5.248530631173027e-05,-0.000745035715097872,0.0030859938039688407,-0.0023488672369462366,-0.00024069853442495673,0.0016371215985188155,0.0017289169238383782,0.0005275605837136498,0.002007857816088723,-0.0028396755684071025
-0.0014824343971451158,0.0012389419987597803,-0.00037854387369158784,0.00032013563551896263,0.0006702457666969184,0.0009567961449023414,-2.736890150996396e-05,-0.0014815933285799634,-0.00029457431875429014,-0.0018681094318901712,0.00022759314810054398,0.0011524067244827617,0.001541843786241549,-0.001242173239157851,-0.0014721421988993263,-0.001586067638722976,0.000657287335327012,-0.0007536041929865636,-0.0009178448803613499
0.0019267528035088646,0.0007703720781326999,-7.513436302979181e-06,-0.00019433404115927962,0.003397411393793544,0.00024009237543239068,-0.0024964707534540884,0.002232335124274832,0.0007446712043296372,0.00015393649659280754,-0.002038179082571182,0.0003476902412485908,-0.001032898529322842,-0.0006598645443834574,-0.0014795729825250806,-0.0020714789196304905,0.0017286681327845163,0.0011647412508870483,-0.0012019057989569684
-0.0003934594232996317,0.0001955524419606719,0.001356143743721404,-0.0007083278908568509,-0.00016542964070402394,0.002890188298716201,-0.0005019343914964806,-0.001537515839325678,-0.0007673411075856173,0.0010449762140053755,-0.0006227163556365744,2.1700570444415604e-05,0.001397330787470826,0.0007362907063942917,-0.0020942261330993616,0.00027482417593501597,-0.002051853818840464,0.001960833481154097,0.0009292626528470009
0.005074574164184632,0.002844094769809118,-0.002323135622583781,-0.0009437401856953975,0.0016232578991772241,0.0015478653548674825,-7.75099562076152e-05,0.002122505209104752,0.0005466382540754251,0.0002663555867194853,0.00047782643284839584,-0.0008522978922912715,0.0028965416654732194,0.0002647728977827726,-0.0009346290686462812,0.002946420828124574,-0.0003291741715662668,0.00028792869427762244,-0.0007179107002506099
-0.0005007597122929672,-0.0032844835104718926,0.000814860336100636,-0.0031784671357510483,0.001213694996417942,-0.0004397876978290328,0.0025275611827898148,-0.000330902456442681,0.0044767431166585075,0.0035999474972801503,0.001328460835162952,-0.0005785121086275819,-0.0022791309635086508,-0.0006018825085554605,0.0015559932874245448,-0.0025362382768748816,6.165591037081112e-05,-0.002562338067847474,-0.003905137205588482
-0.0026044057209784533,-9.914285666566963e-05,0.0001887730286013737,-0.0012406887829559733,-0.002341470682314563,0.000928601479925773,0.0037028644914455914,0.002215881857663339,-0.0012533211602445507,0.0026515075937340368,0.0003637859611222694,0.0008383419581121913,-0.001876002233538304,-0.0002859064511978985,-0.0023298801566571047,-0.00136492006182599,-0.0010167232320224533,-0.0030227193183676995,0.0007349020001929709
-0.0030492811900046696,0.002584410462255324,9.513466285903932e-05,-0.0007277612458361076,-0.0018456078573062821,0.0008318284252310387,0.0014670623446588179,0.0002821046951666013,-0.0014693202559649195,0.00021901396361807552,-7.74631911096215e-05,0.0034773542233021517,3.3635358652093857e-06,0.0011675597940183635,0.0008257736670205924,-0.003145887289438568,0.001005113018379635,0.0023258289682403076,0.0005534567452299368
-0.0006558214431722725,-0.003595982546199158,0.00048520418326221707,-0.0005891635715331486,-0.00033168941695256945,0.0017365530075804112,-0.0010013833051325215,5.2216115310802034e-05,0.0007706228595838754,0.0011786351923216477,0.002567769200986882,-0.0032266942451801826,-0.00022133366571137447,-0.0006378139789885016,-0.0016220321661297463,0.00022552706516491543,0.004438642610730731,-0.0008717276328952877,0.00011561736504609096
-0.0003752664543255058,0.002987964004286164,-0.0012677601935013453,0.0013465539090884038,0.000572648473545834,-0.0015084197569107847,-0.0009679846664671305,-0.001601807490673937,-0.0024268173240366672,-0.00036658342370584653,-0.0022382540244206164,0.0016145999484023274,0.0002209584207865668,-0.0008500808644653454,-0.0033113530769797476,0.00145655760886067,4.330938752428906e-05,-0.00030088516365182953,-0.00028335251241985715
0.0017945353754840537,0.0010872898667988228,0.0005359194945232346,0.002203597112437914,0.001888741801456207,0.00269205294371208,-0.0023683493738303023,0.0023075204773831256,0.0007337760937371043,0.002369952440527597,-0.0025174858414946212,-0.0016713846604185208,0.0012875749244743654,0.001983909320453116,-0.001784985913916438,0.0024257967191854165,0.002077326310322544,-0.0001630369409100631,0.0008328434011738729
2.3851614657524554e-05,-0.0024812001846315247,-0.002567800104264876,0.0007203768967991588,0.0005847982661795921,-0.0009564600553099982,-0.0015156566571331747,0.0006576268888532852,-0.00023361288402978935,0.0010927565285847273,0.00043875674164039986,0.0015728769378023344,-0.0023884337218408043,0.004745252484992754,-0.0021270643707396748,-0.0012615822607198106,0.00014811381381900373,-0.0033630582144544216,-0.0006810373340969611
-0.0006881136485394053,-0.0013162302544683221,0.0033359110909631636,-0.001219170265229624,-0.004163542506768282,0.002358810434108713,0.0029142618301857175,0.0009065005829971492,-0.0011149325410318405,-0.0004764633239257286,-0.0007585458592547027,-0.0012302982804760752,-0.0025574967478269777,0.0006629019347827071,-0.0023119325080995087,-0.0011054083513505368,0.0029832135202437567,-0.005548844989043987,-0.00012238404586642861
-0.0036707289818077565,0.0004001643277755129,0.0016431796358592219,0.0036619471994977166,-0.0004066577076583323,0.00011314412646255927,0.0003356936695517948,0.0018707710690234853,-0.0006559655171846445,-0.0019280914127720213,0.002552670712180802,-0.0011055493500987587,-0.001629808836661904,0.0008373606767653206,0.00044896301983775094,-0.0016564725821444518,-0.0013614071587617514,-0.0012309015196420926,0.0015536332137937466
-0.0014542540680767511,0.0003490165547158875,-0.002062031679713793,0.0034487246785739087,0.0006239528264584801,0.0011879967438309707,0.004776560117330405,0.001994834562468113,-1.0552513905307737e-05,0.001267254541823644,-0.0003027213861781505,0.00026540941876522544,-0.0018631607184826128,0.0006102591027767082,-0.0006696504606936924,-0.00138769574434052,-0.002804627832441427,0.0021020242848365867,0.0010806781314496668
-0.0017655184836359661,0.0018380639398331144,0.0003213798130256311,0.0015229586685590775,0.0021302915123705525,-0.004034645245947112,0.000988099338888748,-0.0007811504377282228,-0.003340818826564704,-0.0029144763463023874,0.0008485234122565642,0.0008881892483702551,0.0037275225209231332,-2.8769346735160435e-05,-0.0006727410608237649,-0.000517387641360098,-0.0032203109291713368,-0.00012109243496217599,-0.0009381746172230992
-0.0010718192130761575,-0.002701443869902955,0.0011202002298145832,0.0010062608904147026,-0.001209622952438043,0.0032874086916458573,-0.0008640708734068186,0.00025826202450233434,0.0005968715542867298,-0.0020934629232527906,-0.003462851437446638,0.0007726339805236094,0.000625611042825097,-0.002134869234965457,0.0025150701039801686,-0.003211342607770423,0.0004862410702164705,0.0011824165817206818,0.0009503555537003578
0.0009940436393687225,0.0009454345634864338,0.0012800589924475848,-0.0015134953880458527,-0.0021528061272189777,-0.0017516197103376319,-0.0008625373652978933,-0.0010222425321407531,9.468416827731324e-05,-1.3160965181148787e-06,-0.0016011311357232163,-0.0008401044391737052,0.000600530712792718,-0.0032876331156813047,0.000527037778062126,0.0011983981625718666,0.001284455854099674,-0.0004091569353469909,0.000883923120663219
-0.0004445668498728721,-0.002579551929312038,0.0011841958633372598,-0.0029043812512420373,0.00019279232958696794,0.0006974128901060756,-0.00017045925581626872,-0.0007915798883302708,7.31199820477822e-05,0.003935551875170633,-0.0009663597124468016,-0.00036657281383610984,-0.0024988332477149087,0.00027030539025120557,0.0013847868615654319,-0.0009860184659660181,-0.0014654387006100555,-0.0008642365220681061,-0.0016416780316133367
0.0011817362935033725,0.0006905026720491598,-0.0015380316895923813,0.002980231918787609,-0.0005474785485687293,0.003208229645457363,-0.001270781859231473,-0.0004979985014878952,-0.0003444714866922407,0.0007094498965876802,0.002726008971190938,0.00022675352141990083,0.0020574289037628497,0.00042657388336473186,0.001924580408775249,0.0014801301118373598,0.002346169499014174,0.0001134615964135966,0.0006128503840526286
0.001166628496126003,0.0004373601581495892,-0.0005258371689418152,-0.0013261371648800703,0.004559382346972579,0.0004991727907111272,-0.0017951595285587948,0.00019585668985363486,0.0016461993371823889,-0.004569829754610869,0.00036335086085952545,-0.001820327291455385,0.001581125729475914,-0.004061931541186623,0.0008318070308439389,-0.0015145393303726152,-0.00029861845359522286,0.0002110476897763878,-8.657137941223661e-05
0.0003649661246846861,0.0011663326905876465,-0.001343188350482784,0.000527806562160404,0.001470861330469101,0.0027919215277422515,0.0011314036310241928,0.0014630043992514177,0.0031627249063765923,0.0019978404717566154,-0.0024760077626785983,0.0026783948266117757,-0.0012690150841605718,-0.003465605287795807,-0.0031583843449435717,0.0029717771859947414,0.0019792250016757848,0.0015569738649534395,0.0002066684740129238
-0.004721990564262243,0.0020966071739251064,0.0007772348329679669,0.00021717660981377057,5.559075844475394e-05,-0.0013665426518913216,0.00037365660975419314,-0.0009718685921074204,0.004132534596119063,0.0016315094605481887,-0.00015477248828448255,-0.0038641765367559864,-8.58840647969369e-05,-0.0021199638934716737,-0.00025049317155083665,0.003125295229330706,-0.0040641853445869906,0.00015546058289320186,0.002110862708614527
0.0039232512749398825,0.0037809252552250625,0.000348473272374209,0.0011416110112886341,0.002074005331731655,0.0010731171086651998,-0.0006340561135683326,0.0003092853904079104,-0.0016087177269495734,0.0006962829000948617,-0.0020948726792782368,0.00048366686889342043,0.0018554690676450328,0.001093958460786211,0.0004118032032329342,-0.0009149439252832338,0.0015230542845121055,0.0013862398507819215,-0.001757816008301367
0.00018476054707110542,-0.0009334257395747759,-0.0021793041597011767,-0.0011128395905434397,-0.0034077079130460258,-0.001747355699195239,-0.0009740521609060937,-0.0009781347251129544,1.5851056282965536e-05,-0.001694928007516009,0.0023724891452884768,-0.006098942381782302,0.0011681650456097363,0.0008207505594780746,0.004244584344632052,0.003628085314679768,0.002647198001526724,0.0022766792152533587,-0.0002509755833703886
-0.0003184049846688245,-0.0011879540746519484,0.0013623262447587312,-0.0010021765770575441,-0.0004374370659692007,-0.001862077615186202,0.00236782193562719,0.0006717697545560998,0.00217429089514221,-0.0016499010672549747,-0.0010291247838219207,-0.0008945768939340493,0.0004236499147766528,0.00019469119166085823,-0.0006502273695282491,0.002278913541563227,-0.0016167225817964646,-0.00241478554274214,0.0026528966094242403
0.0034112336265386027,0.0002109350014179063,-0.0042630496221599395,0.0023264230841762612,-0.0006977361122289621,0.0007958389490145257,-0.002780473902426882,0.001324878237833975,-0.0020860795654190955,1.7822406009955558e-05,-0.003410972773089996,-0.0016482061946968777,0.003858508223712837,0.0017070575652601847,0.0019810978480086323,0.005241217641454763,0.0008179198188940528,-0.002197537438162782,-0.002424760119632039
0.002390554424178489,-0.0025688519726343065,0.003448358863625203,-0.0007885250799141322,0.0010176517291705966,0.0012018620763121518,-0.0034606584275731307,0.0023434494497957966,-0.0027982210946297993,-0.0020061652106896865,-0.0003950043792910385,0.00046082501920547764,-0.0007289667034034086,8.573540851497654e-06,1.927303854243952e-05,-0.00024478389296142083,-0.0009476873325235933,0.002551232062501523,-0.0006592997815242514
-0.004061389008971139,-1.7846100523834182e-05,-0.00046741496865388495,0.0006623199951075146,0.0024756861999857267,0.0018359425014726864,-0.0004928033543778717,-0.004714200995140931,-0.0025752600208598167,0.0031364993866558008,0.0001181123069471203,-0.002200032487554367,-0.0007099047201366859,0.0021041916005395205,0.0010819428269767393,0.004247239827507705,-0.001021708001482826,-0.0011770116627199938,0.0013509667452593886
0.0020602925532620495,-0.0003333873552924706,-0.0010906732884020745,0.0007273286170390614,0.0006623319574975303,0.0009650122867576134,0.003791141692475343,-0.00033882805854170014,-0.001003813071384992,0.003615168336067965,-0.0007294836137970059,-0.0001215043469834394,0.001187758215306796,0.00381894875851458,-0.0016446500391097772,-0.00036509992318955564,0.0007365554654099834,-0.003198138262075411,0.0004878292651187943
0.0006239801007636209,-0.0011447370319778093,0.00044046671641632604,0.0032584195160289776,0.000698383192902481,0.001923419654614219,-0.0010657834724083944,0.0008250848351390047,0.004096027372837749,0.0021792523110450144,0.002400876014222721,0.0034321187532352533,0.000713064983607414,0.0006269522596521237,0.0029259171301126113,0.0017817808963919224,0.00036818537676209644,-6.423698148588592e-05,0.0016238555601516113
0.0037499653525457583,-0.001647883617284574,0.0010749122967949134,0.0005481610014126099,-0.0033771170024969417,-0.004394300542531138,0.00048334197693673445,-0.0001486517356491456,-0.0022052459953191775,-0.0016994860660440852,0.001148211385734506,0.00033324836662754025,-0.0014974130737627639,0.0002481984628087291,-0.0005626605496660327,0.0020599149650367492,0.0009566811333742235,0.0008435098400563539,0.00033882952113006956
-0.00036933243282020865,-0.0015137941477255492,-0.0031627932884405008,-0.002301134301914326,-0.0011504318293805084,0.00019657137223280321,0.0005258291775471915,-0.001130676624669833,0.0015376497502600365,-0.0012244701188945844,0.0003767179922984931,-0.00369566278438583,0.0026259346183104323,-0.002085637220303427,0.0005863962099440978,0.0011604534287942292,-1.360885798291538e-05,0.0017416503701793418,0.0001817465195149974
0.0006125581766958046,-0.0010903996471501754,0.0007740910684805373,0.003212041850356261,-0.002115315070710903,-0.0006482022258346337,-0.001189558907437325,0.0021447475626999043,0.0002618788789499246,0.0005849124369109528,0.0009517666139998042,-0.0013541411937125737,-0.0003974303732097367,0.002232044446842874,-0.0010231202791625516,0.004197152280018931,-0.00028135588307108913,-0.00201040491858468,0.000824249429874459
-0.0012805028797222664,-0.0003144619888141042,-0.002537811599610302,-0.0015563949218155898,0.003766887145325363,-0.004265105523305639,-0.0011475928755724219,0.003102867261277335,0.0015837668406816692,0.002109238360210417,-0.0011920786268658323,-0.002681697313205974,0.0043373067210456155,0.00025893815513258116,-0.00033369189409261033,0.00017493096484212274,-0.0013997938325958615,-0.0005799402114744901,0.0004124954288172434
-0.0016013912526637848,0.0005770211013026331,-0.0013678023272267626,0.003119858174701899,-0.0030360111608547197,0.0021521552261798698,0.0011512180973664759,-0.0010081478570951837,0.00100096999971046,0.0020142335372852153,0.0011507122373463508,0.0023657814858092474,0.00027212175412868046,0.0023526813183570986,0.00016424516599007247,0.0006830878802299999,0.00290400415001718,0.001222833802471402,-0.0006899995998353657
0.0002562300788536838,-0.0012225997255452174,-0.0026296561873711643,0.0001591168674584349,0.0021139212370637848,0.0026915372523243983,0.00022611402057867407,0.001716543522818708,-0.0011522343563466228,0.0013855802978944931,-0.004101113298609913,0.002162510637604127,-0.0014073659163872047,0.001240644609912918,-0.0007945825541625698,-0.002993977976664528,-0.002775534362295605,-0.000710611031590246,-0.0010922387383759862
0.00039970342822758496,-0.0003853433372222083,0.0003438302929268633,-0.0021649949779250157,0.0006714450682083745,0.0019635923794985672,0.0006074098486944535,0.0005991950047347605,-0.0012145223035320775,-0.0017666802519250818,-0.0001696912755500772,-0.0012015988892126739,0.000789326257551335,-0.00014519600779776409,-0.002296027199342509,0.004428537809201987,0.0024403696321908036,0.0036269053971611175,0.0007727719627608535
0.0005713877478658722,-0.0028350965082025907,-0.0034367423386339074,-0.001363332175119135,-0.003392885208167408,0.00033521580475267903,0.0020243018954017233,3.845272703792923e-05,0.002190199888613895,0.0017430144089735538,0.0010301067449825989,0.0019271744693054183,0.0001330098697464443,0.003719376125044155,0.0029888639500670997,-0.0009185365418033243,0.005228112355911056,-0.0009890238383942923,-0.001124146522162121
-0.0011348454249457101,0.003465576839818723,0.002682620768362449,5.963633557972739e-05,0.0009543609842140195,0.0002891278926721764,-0.00020360471058728075,-0.002165055654347352,0.001303277989665564,0.0030889361871481533,0.0007686525317623149,0.001997130575325685,-0.00282033627667246,0.0006635818598890396,0.00026647395499426426,-0.0009770201407685703,-0.0037567236231426087,-0.003474791629324912,-0.0025514448779441626
0.0031144720678832755,0.0009028188558162979,-0.0018670265538799343,-0.0025762486522231533,0.0003968323034450858,-0.00016595031877435535,0.004042585506970718,-0.00016880158745669402,-0.0004385896841009894,0.0014341485278805282,-0.0002983738222135121,0.002604801052831101,-0.0021968545539692956,-0.0008018073630746184,-0.00023050735809501408,-9.185842925123284e-05,0.0026089769161945515,-0.0032530272329344234,0.0001855395868458369
0.0003715966769481393,0.0005987901609750596,0.0011176037768299923,0.0024017807315614434,-0.0009593048438560254,0.001160461324853909,0.00015216129913819584,-0.001344576205175615,0.0003385509831893689,0.0034028792594865903,-0.00047009527259622805,0.001652117823361687,5.2424107621167625e-05,0.0018414689779574676,-0.0007208956642583567,0.000156798894236799,0.0003539223624117817,0.000541641109578429,-0.0011967885778647969
0.000748203998695858,0.0016850265661351822,-0.0019646888590784052,-0.002537009499511978,-0.0022838405419827383,-0.0016564823497437601,-0.0035567305312769267,0.0006152927369365653,0.0010173092189380206,0.001070287372504128,0.002294260201577417,-2.9972110155494793e-05,0.0005451742899131352,-0.00043135872485554816,-0.0005115466171180966,0.0016911300213319908,0.0014093486117400754,-0.001840523392958631,-0.0005216530316575378
0.0032234903967583396,0.0007289967232365374,-0.0017299257726420484,-0.002023950905552299,0.0014570862530681658,0.0005808033166362626,0.0011774933667503095,-0.0021302507444879103,0.005468325351593776,0.0022378109840593212,-0.0021760793351896252,0.0015282260534402493,-1.5316030283226566e-05,-0.002170134506580451,-0.0017890801706219235,-0.002642250455601218,0.0007963138227082284,0.0006529509308703322,0.00036771594245762346
-0.0012718403023143253,-0.004382079770205431,-0.0007460094874123397,6.469886094740545e-05,0.0002170144237850798,0.0018794139386058447,0.0014556963015231147,0.001633321334503781,6.128769715471824e-05,-0.0001490239154771252,0.001099581981949089,-0.000371334748790952,-0.0003564323730318239,-0.0015001117060345728,-0.0016414229926155518,0.0010020060328987275,-0.0011390221434391182,-0.0017770728338444715,-0.0007676670960948698
0.0004724627318324345,0.003618011371295941,0.0007310516181299458,0.0016872890785242065,-0.0002110994990978345,-0.0012170839801996251,-0.00021504303127409502,0.0013292831222864454,-0.0029337455405599065,-0.0030530219992913276,0.001485140037216844,-0.0005712091936703564,-0.0017588060677674467,-0.0034512216608358352,0.000863884613973791,-0.0019943796098359,-2.815975649777774e-05,-0.003672855084674725,-9.432395861344216e-05
0.0006921920670376034,3.044637314387024e-05,-0.004091881694060904,0.003918629277644054,0.00013192093297957706,-0.0028750188516346335,-0.0008493218586847038,0.0023793193585968935,0.0005510471294581622,0.002052414612369943,-0.0013834768941869567,-0.002259445964884456,0.0029085324060575566,0.002760365703315748,-0.00369283647806207,-0.004385288422504601,0.002153325889725769,-0.0009681199631779103,0.001898154257821665
0.0011072120123589086,0.0016944179466358564,0.0015833306134248545,-0.00011671239360234064,-0.00010857133488805744,0.0018663847864061431,-0.002901957002815381,0.001769922226877466,-0.0002907973105927041,0.0005878505315788537,-0.001220936228758924,0.0022944449417829555,-0.0024497354257044497,0.0027550850042254113,0.0019103831835302844,0.0010518231519439365,0.0014752304167332062,-0.002674293227468737,-0.0011141257113435657
-0.002090938303872863,-0.0005611836771259461,-0.005036078075862152,0.00011338173177983756,-0.00019668362372458268,0.0008851788173834367,0.0005277646991585146,-0.0020203003454145585,3.0003116977699632e-05,0.0012746743533371017,-0.002523649298248778,-0.0008654416872602703,0.0003342209205042626,-0.001965432168938644,-0.0020337467715515127,0.005225666119440673,-0.00015634072593598714,0.0025502351058873814,-0.0018159814141480218
-0.0008117769808162452,-0.0021700170535199044,-0.0012599727502735439,-0.0006402040245161282,0.0017671373729856838,-0.0010485277531788306,0.00042338297075499265,0.004610770842355841,0.0004181426259617309,-0.003127005488300504,0.00037097547097281745,0.0022127678233824994,0.0009740881663694127,0.0004525164852764345,-0.0007468204368725837,-0.0002970480037108538,-0.0019151241521884674,-0.0011727710704282348,-0.002964272237878147
-0.0051728188772192495,-0.00085887944922824,6.023618473296029e-05,-0.0009007970100332557,-0.0015860908664930742,0.0012089306667947683,-0.001034007725026461,-0.0034873773140534393,-0.0013601115282687957,-0.0025963795921698884,-0.0024834286785510307,0.0003699410916415858,0.0021842101098102215,0.002018151592066124,0.00180169005964644,0.002319127505518177,0.00020315516656068644,0.0010923985770409051,-0.0020328367002842877
3.158944487528901e-05,-0.00010648463988799889,0.0014806051152607426,6.452630310004917e-05,0.002148309105947466,-0.0032855557919664827,0.0001539768728091406,0.0008956381272869521,0.0038868754007620717,0.0012608207994592932,-0.00033743936216133063,0.0018976694593806386,0.0004378638883554114,-0.0005993233729325638,0.002766660293704919,8.565885764707356e-05,-0.0017208882954695924,0.001951682302372522,-0.0012890017892560153
-0.001159425739324638,-0.00037698566449897915,0.0022327532420922365,-0.0007005820000223031,-0.0021328458403497303,0.0007160272227137135,-0.002965511658364779,-0.0010353445865265223,0.0001692625704763701,0.0038492106659654855,0.004045420453847932,0.0009529921557458558,0.0026687917108850984,0.00034615010666109406,0.0011124399914503817,-0.002044922776993124,-0.0014525658479378357,0.0033959928465933545,-0.0005376101350749056
0.00016189359857808502,0.0019723049131943815,-0.0008222846325123519,0.0005984874518013827,0.0024193773811813112,0.0023730463761961044,0.0036711000576829652,0.0003015642105685797,-0.0021742816671234087,-0.001346288157824782,-0.002110879240903695,-7.875543934107811e-05,-0.001539204337914217,-0.0007923762857516984,0.00017213728297835204,-0.0011990773181495334,-0.0030991182936934937,0.00339881626128798,0.0009574517567804173
0.0031925700240799486,0.00057215828597954,-0.001981527328087342,-0.005718456280968611,0.0010931184528904002,0.001531915146073509,-0.0033153452611880815,8.446598777196357e-05,-0.0019083353096136376,0.0012061977189318672,-0.002226188818518099,-0.002111156899696925,-0.0022362225923104277,0.005118179215847462,-0.0038211063533337606,0.002848866900303146,0.0003378698642060877,0.002221387160595072,0.002807424067127378
-0.004780940506895685,0.001964422094125434,0.0004001917206812896,0.0004755703396190823,-0.0030276337687371235,0.00043178390954967373,-0.002520280516085081,-0.00277730035520075,0.003578543422964061,-0.0015713775216385335,0.000559892687537632,-0.0021897313807546304,-0.003038510320733322,-0.0020025791966754854,0.0031877722604505628,-0.00010275047523172392,-0.00025845781729875333,0.00210466226139132,-0.0012445098556268426
9.576899841057257e-05,-0.0007749683058248943,0.0023848311804325235,0.0016853873335572766,-0.00026602197889108995,-0.0018480195742861505,0.0020425521087170813,-0.0008697910015933509,0.00022860847013128171,-0.0001313988469706889,-0.0015759355294700215,-0.0007385799377439346,-4.29812938520188e-05,0.0018172188656247683,-0.0011801478016036568,0.00010979988040980067,0.00025493450563149523,-0.00045409482958864837,0.0013674900233230146
-0.0036479432952721083,-0.0006032831116639033,0.00023284298446628752,-0.0010992914499194442,0.001248054293174284,0.0010198698935789982,0.001649327729011582,-0.0005195496382028784,0.0028815149508894075,-0.001106826634750942,0.0001684065630961251,-0.0007203311691309447,9.966687954721985e-05,0.002761368692457786,0.001926456292305064,-0.0013109021433500168,0.005924433080810875,-0.0015870960936935857,-0.003146936474622946
0.0007853832409134979,0.004055698018584291,0.001202547456079611,-0.0016821403806712492,0.0021450746647734185,-0.0004933917041746357,-0.002233098118468954,0.000928354463945643,-0.0014370948319919682,-0.0009708352544057322,0.0023051768574446512,0.0014309627602263027,-0.0019231357245798554,-0.00010082234196622795,-0.0010671253366681176,0.0012180904939526236,0.0011656433083641134,0.0006900615900801741,-0.001949916673454788
-0.0013723245650764252,0.0018104287904460367,-0.0015504038115706775,-0.003724328828453507,-0.004774054745306365,0.0012077592505795164,-0.0031891677799337458,-0.0029438760994834018,-0.002707883612693682,0.0009244083123618541,-0.002313635036539596,0.00039537283859185477,0.0010206115401027037,0.0008591720071745959,0.001706059098151646,-0.0010137729520826213,-0.00021472331674375503,-0.003991813743462723,-0.00014435148016699403
-0.0008873874855229467,-0.0015695119209217657,0.0028040638335044814,2.8600040217577174e-05,0.0037918961834465053,0.0001457740333029609,-3.295787309722908e-05,0.0019462742986660004,0.00038993975199591823,-0.0012621463584798667,-0.0014802500943159528,0.00018142746486004053,-0.00130661712275736,-0.0019396363758685212,-0.0024240867069018268,0.0004590624768484955,0.0002456506875166234,0.0008070911633768963,-0.0017497141229652641
-0.0037767494624424114,0.00024694636649962763,-0.0005580050900319966,0.0022556732276798816,-0.001500458851639351,-0.0013906696753216746,-0.0035160463275565783,-0.003138121878546958,0.0006973477930432003,0.0009550794032772421,-0.0004164759814275715,-0.0030193185677509023,-0.0012438968069626002,-0.0008207782601098721,0.0013263111158173953,0.00013399409379910433,0.0007834826335818369,0.0015586729216145968,0.0015162443809600534
0.0005652521095646487,-0.00042093266985945024,0.0007906940865640776,-0.0026416224528474893,-0.0036385871467848837,0.0042913885364051435,0.0006182222675249321,0.001027765116925428,0.0005491500870479616,0.0018903105820567811,-0.0029856379611027982,0.0007532345311507849,0.0018366191595270713,-0.00012460237404877153,-0.003413516332845933,0.000539415397867412,0.0002683049980681786,-0.0027447413327453844,-0.0004161110061797294
0.0015769350341834816,-0.004985961960143467,0.0011616905037203301,0.0027388984127497853,0.0007500478639418973,0.00013184380458295902,0.0024131673602284685,3.707051287041194e-05,0.00053495704113226,-0.0031434602055379576,-0.0057085636346196995,0.002014934272830416,0.00013229905409672097,-0.0014848493627761107,-0.002871175190575567,0.0027592969909963354,0.0037703329219990855,0.003183685016340947,-0.0011582081137533368
-0.003336055481447305,0.0011114893354303844,0.0009772585727240203,0.0014355435259503675,-0.0011400781645373543,-0.002163305349566411,-0.0007904154153252281,-0.0011780232063730467,-0.002602692157745823,-0.0008385845407719222,-0.002544309026857518,0.0004793261720101316,0.0014211167418662625,-0.002068769568244414,-0.0017519655203340446,0.0004729600458589357,-0.0018697531118736343,-0.003469468257604145,0.0010865685338048317
0.002488860306571654,0.0011117533127492783,0.0013545451881905534,0.004885770922821607,-0.0023963247675741193,0.00015663875020114747,0.0015479071898446047,-0.0026787139123685467,-0.002593644918381775,-0.0009647142074187939,0.0013582452664269572,0.0018073460561278838,-0.001968808026367665,-0.002046217547012305,-6.268663829841887e-05,-0.0017625957074406274,-0.0018445791972529417,-0.0007597653106116277,0.0011506690102482727
0.001116007372786976,0.0006056192369550177,-0.0008006663555037248,0.0012426683326150004,0.00018231951742646294,-0.0024974199983715533,0.00018189264739129345,-0.002934496029045079,-0.0008543262573012957,-0.005525731533261256,-0.0010028058974810964,0.00432440396454071,0.0017279461873837528,0.0017447373676001833,-0.0005410442918885043,-0.0014598122445100496,-0.0018811494720008617,0.0011427043879749092,0.0002098233910328409
