-0.0001339839207383223,0.00013997691985018928,-0.0021635644323871345,-0.001590539797075563,-0.002055554659378014,-0.0019892283752957506,-0.002204666241879198,-0.00048275520962011344,-0.002910758470675636,0.0007441191043981337,-0.000731270351228875,0.0017629430899557023,0.0026591278807696203,0.0003639256096865843,0.0011001475018276017,0.0005917242068115634,0.0032904281642283555,-0.0006978362262879034,0.000314343049253293
-9.250087724544265e-05,-0.00478379889739386,-0.0015645286204473857,0.0008676914823343286,-0.0009319682008327612,-0.00038557911518999225,0.0010518779373863108,0.0013193598732264514,-0.002333792400353243,0.0012676704530402776,0.0006184625981714124,0.002868136405341966,-0.0010483687501393923,-0.00014146818318471518,-0.00013914585398142878,-0.0006744012156172869,-0.0017853778294671565,0.0026728759797608323,-0.00032864374977512815
-0.0014987717182434253,0.0004015292939191288,0.002439201880263013,0.000902721620212432,-0.003635502131589811,-0.0022027439480721226,-0.0003866177286921586,0.0021196531436750094,-0.003216119697364384,0.0030695261978569196,0.0014800055563802426,0.0013908561931214138,0.00200709847253976,-0.0009381874092565997,-0.00043641187889366796,0.0013227460558501993,0.0009154513993707225,0.0017871876012440092,0.0018407906873209004
0.0013686728696171073,-0.0009254716297665537,0.0012166958336021813,-0.0009587741476387524,-0.001364697057507506,-0.0009864887700398162,0.0012068857735917679,0.0011341232379933845,-0.004910042853187621,-0.0007511751612798586,0.0006229742411183864,0.00138557383668625,0.0010230081119954797,-0.003437347138227262,-0.0018071160955580104,0.003037036475508296,0.0023513373885817243,0.0014262330114447215,-0.002518995487008212
0.002440198765576615,0.003399315552211037,-0.00036643510731774017,-3.891428607895474e-05,-5.941263779653697e-05,-0.0025694176936690637,-0.0008671745027676062,0.0024487352352261433,0.001143523667563605,0.0021977654843337554,-0.0012584182564216652,-0.0014734136447193443,0.002588622842172757,0.0001355200681405272,9.470103036644991e-05,0.0008419094152571065,0.0010664729717589122,0.0009167902473878391,0.0036827239163771475
0.0013835942322113915,-0.001982783264677731,-0.0035182508655013647,-0.0033295997351609668,0.0014876451839409318,0.002032321381376712,-0.0006623619440311886,-0.0008343719123437784,0.0012521531666112996,-0.0006637872031571996,0.0007631916926706627,0.0005551123846573859,0.0037410880281904995,0.0011068620185052628,-0.00014389515969242433,6.151303840610723e-05,-0.0005288046019029917,0.0031394429349083843,-0.0016104120208632502
-0.0026955898157037896,-0.0006437850858286598,-0.0012715562584476843,-0.0005420041587893676,-0.0008573364957799945,0.0029375698314787427,0.00226168291689772,-0.0015318413585233479,-0.0014745382289799722,0.0011927791505988103,-0.0009391290743814631,0.0020617260115774355,0.0013491613093667583,-0.003617360999821424,0.0007842682669667815,0.0014847015053189318,0.0005965414777219509,-0.00026679905228860874,-0.0014165117839514277
0.004016980579953327,-0.0026387594760281766,0.001676166610603385,-0.002516807476706629,0.0006726580145016858,0.0005521284993636332,0.003026164667739729,-0.00032453622678201076,-0.0008988073316630946,-0.0026719083602601778,0.0014874823936805173,-0.0037364066482986078,-0.0007820895422709373,2.462933622903788e-06,-0.0014365031315282187,-0.0007895189879407718,-0.0015743726121038627,-0.0011435275545287071,0.002572765060127927
-0.0006672385081029522,0.0005901752288927294,0.0006355851425082248,0.001083336739940821,-0.000490036168669729,-0.00046359844893868035,-0.0002646456966474328,0.0006418135720040329,0.004001836791984264,-0.0013790325722326199,-0.001000483296509559,-0.0006519990275082939,-0.0038383168815417485,-0.0006047331792096138,0.0008753473102111593,-0.006288883779212801,-0.0007346579362955707,-0.00012324448245845378,2.8001775696176835e-05
-0.002421703131555609,0.005959587631315851,-0.001970721107370106,-0.001015633295894331,0.0031170047388985405,-0.001328943781816068,0.0017129542154749918,0.0009450680242928354,0.002713353878515135,0.0036049563153205564,-0.0004818416633312472,-0.0004555554139158805,0.0016756503764515044,0.001418870198566136,0.0028622088845211974,-0.0016584116705917564,0.0004238116114393815,-0.0016669123131526672,0.00016689821902241084
0.0004617588931961777,0.0007055506170181189,-0.0008859186171692033,-0.0008841935396513719,0.0012381136173297861,0.0012773837906665019,0.0011627846228044823,-0.0024728179250063567,-0.0014299190624703743,-0.0003248818937962145,0.004114422840778036,-0.003025385053733762,-0.0008251105931087555,-0.004802368261544919,0.0007941050440884202,0.0008553596247851303,0.0016073057277990889,0.0005818087643487554,0.003768838633240646
-0.001026261573135654,-0.0004334388759491356,-0.0034650175982096115,-0.005914838903729168,-0.002596378421888426,0.0007891708854715635,0.0013993925640237,-0.0017708297941134241,0.00041292208579343835,0.0025657832915599236,-0.0013020747151734852,0.0009675114162469433,0.0012625238213998912,-0.0016597256870270743,-0.00011083462451360362,0.00014405060450206814,0.000251330944505344,-0.0020875687965178154,-0.00018435219857177376
0.001268210463731773,0.00086110215027792,0.002792187446622921,-0.0035151202097730566,-0.0020698842489705886,7.957195400879498e-05,0.001418670349846725,-0.0006527352005848393,0.002457502837355449,-0.00010593313319968344,-0.0013589369834770568,0.0002940272706617667,-0.0014457656135112322,0.0036970002772946965,0.00245161233089965,7.919439540296014e-05,0.001256171753287553,0.0022517425512486116,0.0025989293780194567
-0.0022452076638849964,-0.0017141406405662472,3.325169065438125e-05,0.001548967966757759,-0.005157532196226293,-0.0010552299613871886,-0.0008505954871737541,-0.0016721581742176268,-0.0021465605551698914,-0.0022616765442159,-0.0003145622858869301,0.003089756665676482,0.0035580538050377338,-0.0017829440395848398,-8.36071870175004e-05,0.0029101472892021636,0.002135691173482546,-0.0016129365642186572,0.004345281135877173
0.002660296225266105,0.0010950252064496975,0.00038918391155291966,0.00037764747560665107,-0.0028628076388490064,-0.001077941913387274,-0.00014536156204671783,0.000876363336916437,0.0013858804224770101,0.001582126083202912,0.002049582341756785,-0.0009458939659430074,0.0010207848715312548,-0.0021375810782916166,-0.0016688332993921758,-0.0021248389017307994,0.0005359245164733227,-0.0001671945132369266,0.0024940491748984524
-0.0023767862895635364,3.404842452231896e-05,0.0007729801508071863,-0.0007431158101073202,0.003215740930778174,-0.0012664767393217825,0.003756238395378738,0.0017259462031604894,-0.0007842056783957759,-0.0007389082537184996,-0.0035185691987718046,-0.003721312531300153,-0.0006309981214430392,0.000847252185585102,0.0009396297853630759,0.00033647373333500205,0.000999905216768995,0.00038493979521796325,-0.001990023578860694
-0.0036444775180914297,0.0005418020303202621,-0.0013402808053217894,0.0028752966699225804,-0.000648907692544329,0.0004066580817896769,0.002750829157911545,-0.003321535487200871,-0.003783359336745649,-0.002519822749350735,0.002681419566824394,-0.0013851529576920424,-0.0015144262978642907,0.0002684255536451113,0.001748551374204431,0.00243288617817763,-0.0033746172163010802,0.004480944936237224,0.0007648585876891749
-0.0030967001157771274,-0.0007525607185697447,5.9057101303078035e-05,-0.002869132966207199,-0.0008673879355813096,0.004764252813670686,0.00022521148908329254,-0.0007695638072465614,-0.0011682982781610995,-0.002390844342476671,-0.0003459448708434328,-0.00248485176715119,-0.003312071513792687,-0.0030372536490959516,-0.0014145432597910236,0.0019437597869837796,-0.0007446016879333972,0.0018803856738039576,0.0017093585180459672
-0.0012807178278783297,0.0019383294097786343,-0.0007977351894250514,0.003117073359557344,-0.0015770736711993383,0.0012776580130276938,-0.0007015623652899002,-0.0011487773353847336,0.0007766862248502415,0.0008423443659113948,0.0039444263492871365,0.0038550845383086246,-0.000878220323733587,-0.004153698940895686,0.0053082245443472394,0.002826020595923503,-0.002378815580840821,0.00017689694269391117,-0.0004887352005559594
-0.0011400049207859074,-0.0037292786247524953,0.00012277144288098742,0.002601991335408015,-0.001101829911778244,0.0006071703530554051,0.002681544532235037,-0.0007453430293502698,0.003533850583731563,0.002543774209003312,-0.001600976469734847,-0.001591861276999908,0.001013519633502445,0.0008431462118148566,0.0038686720435093503,-0.00330322320727254,0.001695986060851109,5.393971622889131e-05,0.001256099219834623
0.0027361879761674934,0.0006335105877773333,-0.0029720363727575552,0.0019004415706765435,-0.0003188306647999573,0.003041989741059384,0.002718140145233345,0.00010627300462962678,-0.0009843383255352962,0.0015485539956825987,-0.0028633235901140046,0.0017852167620904858,0.0010870127579914028,-0.00036602655519434724,-0.0007577976246444791,0.0035782893777959192,0.0016886245461735965,-0.0015373691898743233,0.0018136116887788795
0.0004523022515795307,-9.270346135907435e-05,5.7141860308275805e-05,-0.003928908921700137,0.0016004459468517487,0.0026663273223112983,-0.002464717192571493,-0.0007988151780441085,-0.001405000790195277,0.0009927589579573585,-0.001997423064039214,0.0011954842428361088,0.0011320125630080841,7.224243472559832e-05,-0.001486685136981701,0.001551217033476107,-0.0001486380187738744,-0.0018788228767824423,-0.0015314972491370905
0.0010539449371662537,-0.00031145676347703484,0.0010415404933567347,0.0018449906239765817,0.00041621339193470026,0.005807804754114981,0.0013338562222056816,-0.0017123900866391568,0.0031447945355383283,0.0004678464534702978,0.002042200335046018,0.0025739156973157273,0.0019569815144777195,-7.722324400372683e-05,0.0017033997228240575,-0.003737031778872028,-0.0024125509921181123,-0.00032229273720555117,0.002093135439835706
0.0011794803141011835,0.0008463142290097564,5.10724196427165e-05,0.002976371214933727,3.857428460535596e-05,-0.0008004428374140037,0.0004300004810569199,0.005325806203696123,0.0011708967462660928,0.0003061615657090041,-0.00018212181354455086,0.001207951491323584,-0.0002612400791859426,-0.0013063453572535863,0.0014541612457646784,0.0008255774882127275,0.000108536104482126,0.0016477914843782023,0.0009438351481072786
0.000697035489286964,-0.0007173359864373716,3.0280458000035295e-05,-0.003803198012288401,0.0020924599107165665,0.001483494070255846,-0.004494426530567928,-5.532322332822676e-05,0.004572905380056694,0.0008146322202352253,-0.0016018632964778137,-0.0017268136387606353,0.002089470280150197,0.001078252773720926,-4.970857187892241e-05,0.000236691677091079,-0.0035589182318291296,-0.00036317576232911225,0.0002992659321987345
-0.00038442649809818634,-0.0012627074654390092,0.001634458691230602,0.00045362186521391015,0.0006981352998205454,-0.0019095081613888472,-0.000935304483298075,-0.0030255944615607874,-0.0005496372512909376,0.0016507186963976592,0.003554091234432473,-0.0001864191301903576,0.0018938420269927886,0.0038065017119879364,0.0014012180880670778,0.0011825421043663662,0.0008581307250058188,-0.0012155649201733244,0.000578431009085292
0.0006936497566050985,0.0012229873645500649,-0.0017840540176018143,0.0005165225696165493,9.04486858468292e-06,-0.001381807857548135,0.0022267021608719734,0.0006178833009049191,-0.0013152167411900376,0.0028085889568453056,-0.002399650845159787,-0.00083100429970866,-0.0009188635230162754,-0.002880427296413741,-0.0005178460397908227,0.0014405921620062325,-0.0031291340724883807,-0.0006044262921330694,0.0011682185919270087
-0.004527547562839031,-0.0017167378674668064,-0.0010419978056962174,0.0007984258592080654,-0.0002457196969293104,0.00035353278447000777,-0.002361489774297232,0.002512829119258418,0.00031159930692088305,-0.0023387172436380556,0.002060048613664154,0.003945583655444598,-0.0006538259264038706,-0.0021838711066065864,0.0002181105036977831,-0.002404148730422185,0.0001765318216650298,-0.0003852044000711267,0.002316848551405199
-3.789949195013011e-05,0.001303871301408701,-0.0002872067929694893,0.000534924969429081,-0.0013067538777567962,-0.0003898448409468933,0.0012628661316707438,-0.0017292344540319868,0.0032058925989102106,-0.0016034184577238654,0.002743418552237576,-0.002397595815077767,-0.000670971712012913,-0.0006643848331138563,-0.0007742409947469415,0.002292511162772259,-0.001933065341497501,-0.0010539710147486573,-0.002083825082289952
0.0014928906021924745,-0.0010715827939834976,0.0007771772743706343,0.0013080912933838111,-0.00025103448746755793,-0.0003748733897753126,0.00037879719965462806,-0.00018756512935918767,-0.0014643106706575615,0.0003985009451496732,-0.001020288023748625,-0.0022473458637045024,0.000432714844035316,0.0007403514914972413,0.0029209956279936575,-0.0016960186459084765,-0.0018047143817853128,-0.001056127468095694,0.0011552259340705316
0.0019753005003728644,0.003176067289558961,-0.0035021618293478852,-0.00039395431730118057,-0.0003640964539865577,0.002582630176190588,-0.001893501692536757,-0.00015048344663335715,0.0008382611451214308,-0.00069232020436887,-0.0003189694943163399,0.0033786612811480075,-0.00032541477582386343,0.0032132137006700375,0.00103159092729391,-0.0010403522493308407,0.00012303224358115885,0.0014676454983437504,-0.0013787646179969815
0.002797584071579429,0.00045516944924225825,0.002310657148780884,0.0012444185143000684,-0.001164801772263152,-0.0010542944758731153,9.919521464182818e-05,-0.0017831836378022817,0.002141288693218785,0.004012425873673641,0.00022901317922328527,0.0013198688973408688,0.0005389850795750812,0.004509531536819239,0.0038411654755386372,0.0005649778449453335,-0.0010985436596977745,-0.0010797678586766367,0.0010999914884883433
-0.0028715656006753944,-0.003986427402756321,-0.0001305038072809584,1.5237530482435574e-06,-0.0022099010227347336,0.00023115969909970875,-1.0406070744861956e-05,-0.0008009182921234738,0.00037621509187769534,0.0009459366281358393,0.002081032824420565,0.0034070329747563424,-0.001719764415868581,0.004272321907078407,0.00010090693466351173,0.00039278614852779944,-0.0006803498709296918,0.0010182313164200283,0.0020119465555526435
0.003408331244320635,0.0001506861215242206,-0.0005544907172703383,0.0025520610784886466,0.0019032696906829622,-0.0025412338005801074,-0.004435395724952363,0.0011757548851288936,-0.0021586728816150778,0.0009660227243869062,-0.00029456762246943285,-0.00028917932815472597,-0.0010575361446389946,-0.0009244071127347966,-0.0038982319547537694,-0.0016304521637540436,-0.00018091164587070164,-0.0010167139084555834,-0.0021890846587792837
0.0020918086805003055,-0.00032468765902412405,-0.002780798502696262,-0.0023396234655021263,0.000621429740610868,0.0029939564138070367,-0.0015442280331667104,0.0018505785728798547,-0.00034876443394591647,5.8425714568426054e-05,-0.0028717124081883163,-0.000354242121797591,0.0008285987889583896,-0.0004109701308321312,0.0008407529896533869,-0.0029151167209575317,-0.0018904101973540484,-0.002150355161271335,-0.0018619547947837675
-0.001411743709382716,0.00028971632126208315,0.0013786044406351651,-0.0013211608773340913,0.0021250147818800843,0.0005354458908307402,0.0014553759612191183,-6.026573325195666e-05,-0.001458253855871165,-0.0021838524750316442,0.0012238984592413539,-0.0037788800571591863,0.003382218403961146,-0.00053253700599553,-0.0018423203439358216,6.439737586701705e-05,-0.0026507208414991565,0.0010961906310559845,0.0007322241551677292
0.0019433442433147072,-0.0003508545195560965,0.0020175420428751633,0.001606760835959108,-0.0009213222547605339,-0.00173841453280438,0.001149673187122127,0.00013825886599172857,0.0012973081365001756,0.004204322583561947,-0.0006858991015077113,-0.0027738216353260492,0.0004468151206778376,-0.003546054566462281,0.0013897201024535572,0.003672647884558377,0.0003544450625157791,-0.00015881909141485142,0.0019161656475644203
-0.002560961089007659,0.0011431204257194068,-0.0012959188722003866,0.0003089118574932541,0.001244779222530602,-0.0002011098682544531,0.0011723519250141545,0.0008437395409563884,-0.0006766625574920644,0.0013878351040575207,0.0008385670104017639,-0.0018642996760958556,-0.0009538880243683727,0.0006788164367159794,-0.0015255685004136206,-0.0010080825914492184,0.0027238216704219918,-0.00033126688197756486,0.0018587637464924662
-0.0010593663646704956,-0.001017333860589362,0.0007990247626374097,0.0011050444444924508,0.0008426804484825528,0.0022558441633264703,5.021831684748192e-05,-0.002745302132362535,0.0001130181174447014,0.004442259992211937,-0.000355152979813536,0.0011929212362336566,0.0035516766580798815,-0.00045284575029248066,0.0006529872736622682,-0.0005454130664010345,0.001567361356882536,-0.0018777410109394287,0.003071397409587473
-0.0008915965667402532,0.00162121185973028,0.002904321809602529,0.0005706494372557587,-2.892937088446439e-05,0.0022822325182343234,-0.0015107404595211566,-0.0011731437265020059,-0.0003062097154457645,0.002298406889895155,-0.0020312268940099985,0.0021579725846470918,-0.003654462049351595,-0.00237215744460775,-0.0014434477708780394,0.0007736563287875963,0.0008574139364302272,0.00298406578286538,-0.0005636847103053035
0.0007765109289417577,0.003449904360654656,0.004378442327534305,-0.004617169479215943,-0.0038789560022391514,0.0010589197183915146,5.924197640274217e-05,0.0015997491630992957,0.0032112038556249656,4.250422670277469e-05,-0.003522320525928609,0.004397913566963403,-0.0008962159252746698,-0.00024708448794787016,-0.005371707274106822,0.0041831827213891426,-0.0030590357580886577,0.0007291174376257571,0.0005628425893464095
-0.003693858872840375,0.00033762627614206033,0.0008375390913233922,-0.0010830872331972165,-0.0006620681635530206,-0.0019005120336392889,0.0026605699439430724,-0.0003055280023369234,-0.0012312436125943968,-0.0029580430761395994,0.001468084134704513,0.0005998460246073397,-0.003957506366669279,4.149255714642194e-05,0.0010276447422714245,0.0004915079777805991,0.0015432384574081924,-0.0014643213947503173,-0.001592750268708834
-0.0009101842417558466,0.000417859060627678,0.00045543232066247403,0.003866663935626546,-0.0035751321610702344,0.0007092776111996183,0.003077348148242598,0.002123329054180063,-0.00229420275843713,-0.00038108024843322934,-0.0038042764183199677,-0.00165489906621462,-0.0004723029090757437,0.0015978930480732532,-0.0012633289169468416,0.0005720025668650703,-0.0016244665719635936,-0.0021518689502702535,-0.0008360753617052297
0.0021296558896910997,-0.0027015125946467282,-0.0001257810826683709,-0.0013759492961811194,0.0012971468110553836,-0.001720988593277657,-0.00445748567424844,-0.0008121862301064054,0.004951496708802432,-0.0032476704774266106,0.002484899556992489,0.001671494063186234,-0.005369169196922146,-0.0007427375278838262,0.0006519371861443877,-0.0037449737862433534,0.0001474338678454234,-0.0018503057460924062,0.0007946009640654063
-0.0013778165344817321,-0.0011722873298699458,-0.001985945351182515,0.003575944005926032,-0.005400784793115314,-0.0021828996280462334,0.0009530240540297173,0.0005558226416670906,-0.0003294597627080848,-0.002097963301204611,-0.0009359339288194872,0.001863258329775971,0.0031481575701604674,0.003010264172277376,0.0005790713589801678,-0.00037981138094418155,0.00024018427294605817,-0.0005912760568528893,-0.0018938785660498694
-0.00033429019103439403,-0.0014608052387461014,0.0025472059116120427,-0.000411569265268503,-0.0023795037338143967,0.0005912609015687554,-0.0015880486183499714,0.003996714489341767,0.003842678152545932,-0.0016449828581364756,-0.0002809364499761098,-0.0016031432232294506,-0.0010482553309260347,-0.0014018359766229272,-0.0012493657686023468,-0.00018336565646850288,0.0029320682210896534,-0.0011678957136638294,-0.0001849072858455573
-0.0013763578539226515,0.0011912304219020172,-0.0015719510504398114,0.002833749461995104,0.0005055808077605656,0.0004591100116133884,-0.0007543060389673102,0.001347473074731188,0.0012210427883588334,-0.0026345890947974716,-0.002425980856701292,0.0005097345731954502,0.0031798467579630422,0.002179319656514917,-0.0015196047895007267,0.00034771251135915854,-0.0006948649877054583,0.0009682673039291278,0.0031581711627863465
-0.0027765682504161757,0.0011888820705839007,-0.0006714380003759246,-0.0012201194790390877,0.0003400134386961174,-0.001050628887773704,-0.0004645129197364896,-0.0010539407535544313,0.0004708840913615315,-0.003223564907394527,0.001087300434274083,0.0016530485269168483,0.0011013116617238372,-4.907406986913653e-05,0.004544021897085655,-0.0006304761156454909,-0.0008055056207795666,-0.002197080595947071,-0.002171037992834207
-0.002352934117492111,-0.0004155055478480883,-0.0011149810490816922,-0.00042621727717735144,-0.0008459184527412353,-0.0028638213165126493,0.00074498826283699,0.0014389283147922733,0.0008922612654539061,0.0006966559262827234,-0.0006788746413802002,-0.0025612889471675394,-3.271459539129926e-05,0.0018835732720544902,0.0006757534316962425,0.0005764160534161623,0.001263087650577964,-0.0014867335536473082,9.726692625445217e-05
0.002906342295037954,0.0008405431373271452,-0.0007031686444619031,0.0029180017492630127,0.0009676310294566374,0.0016461079850799364,-0.0012136790008855343,-0.0009630403689530155,0.0003639065224539921,-0.0004760561927488694,-0.0005126888790524383,-0.000700406649186914,-0.0005447283921321464,0.0018630901258167836,-0.002125523647940171,0.0012357542598492902,-0.0023695732982098945,-0.0014340644293864167,0.000467654211081931
0.0025808665348900036,0.000842715910005054,-0.0005177466287552192,-0.0011537632152114202,-0.0019131346074290707,-0.0011110068680690074,0.0017894137710838208,0.0017794507780883272,-0.000362784248151062,0.003034907157563884,7.455609846221476e-05,-0.0013216608205390105,7.775408344415717e-05,0.0007623697650999656,-0.00023509978523070094,0.001139390176953875,0.0011822846249675797,-0.002610380645463475,-0.0006035100424322339
-0.003976314616746347,0.001964708040196681,-0.0005412192582431809,0.002372062264178001,0.0010765020419478066,0.002557717756187304,-0.0012649560970349452,0.0007478815688436072,-0.0022073140440378794,-0.0022935952110871433,0.0024716045591707935,-0.0025589558397839003,0.003949563456901398,0.001409525629759126,-0.0014647080121522476,-0.00272136023356066,0.003525265877976595,0.001196476042665732,0.0022923537842587695
0.00035929966968268934,0.0007150324215709907,-0.0018609360303748076,-0.0009136959848215043,-0.001509709131328533,0.0015337736315972933,0.00012845431279818713,-5.759722416939501e-05,0.0011263321549103067,0.0018849817554649107,-0.001443556708842019,0.0017639914380328367,-0.001250532955854933,-0.0018746062182148843,-3.038173314980713e-05,-0.002959581963664446,-0.002713544906026001,-0.003774370946960868,0.0022986883638313996
0.00142159229499618,-0.0004362945691300059,0.0019486492270555545,0.00044295622628546074,-0.0037591957248324045,-0.002548218193010211,-0.004636127999555174,0.0018220405553631203,-0.0003429155330819696,0.0012435795642758497,0.0001774823448825078,0.000759986229721213,-0.00026815622554107505,8.762603566688617e-05,0.0005034430084720758,0.0009329383178997833,0.003736255708171665,-0.000601975747647407,-0.004048653937809333
0.0018873910031632535,0.001912993984709402,0.0003736266558833828,0.00011701318880328372,-0.0015065378984265975,-0.0011782193550880643,-0.001046676807026792,0.0048877615460515165,0.0008518283339292034,-0.0032504456591143844,0.002190008885680714,0.0019460655331689977,0.003980066814824534,-0.0007502632423889034,0.006859832961489376,0.0019182746511355617,-0.00016671297381703337,-0.0014597843479535139,0.0005164349321230215
-0.001993628278971356,-0.0013523489372148847,-0.0035790338304940565,-0.001980320069575526,0.0014029272777259351,-0.004642661306413617,-0.005553602595355268,-0.00205090472620765,0.0005165046537897994,-0.0005315421196934643,0.0030233868255083035,-0.00047280216475653554,-0.0009334602799807509,0.0008341695553764602,0.0005894285069450891,-0.0008239054437434355,0.0005195933591816425,0.0010082707974291717,0.0009027552902940157
-0.002058042978075484,0.0011324491627542656,0.00027446969171567704,0.0008343168186867227,3.384269205535267e-05,-0.0034760438580288197,-0.0008592567253384737,-6.494556579455209e-05,0.0018120381007544573,0.0033274675226892163,-0.0014461893779989458,-0.0011332671656032085,-0.00030643593286785873,-0.0015709359903054614,0.0009618370221896789,0.0011354109141018345,0.0009180675492858685,0.0012016366517185538,0.0008186687816774321
-0.0009800195009952418,-2.9012664323613094e-06,0.001740878026349049,-0.001348459574376852,-0.0024923233809126893,0.0051050059264651886,-0.000846106118310336,0.0010584655738479578,-0.0019104127337920473,-0.0010972387073922127,0.002679959665030951,-0.0023475683564483383,-0.002065357882741705,0.001241972266946727,0.0013626338406148328,-0.0020909661172047182,0.0014882318818466398,0.0005768557009819047,0.0015106727276505915
-0.0023271277994390788,0.00014294881275513427,0.0014148858726821853,-6.816485616236238e-05,0.0005108005094662805,0.001960936065896148,-0.0005088323405808489,0.0005953094694450457,0.0029712229949455165,0.0009788998526906935,0.003411486119517198,0.001269845665902881,-0.000245237247158743,-0.0001516072432482531,-0.0028815066608155184,-0.0021950978952390565,-0.00035709793597283213,-0.00012478315979459024,-0.0034153846443056874
-0.0006076399876363992,0.0029779064820751253,-0.0006609509884107241,0.0024174521979927876,0.0016394262706439942,-0.00100314450379223,0.00011207684229890264,0.0013014487392102219,-0.0013243803465251415,-0.000947981330033814,-0.00010293988677815272,-0.0019177043101046005,-0.0007945220807654917,-0.002587639842244769,-0.002901192472096888,-0.00273953872270057,0.000300431654842804,-8.087637820451167e-05,0.005723695836021546
0.0008165109612346954,0.0017138268306173994,0.0008314887921784752,0.0012864903953040462,0.00020007539581233018,8.532237674678806e-06,0.002736935543920844,-0.002196882086321477,0.0034691344102032594,0.00039180459547110856,0.0008017291394348865,-0.003598013803321858,0.0005023938079122892,0.0022889189771082346,0.001150787536599774,0.0027559848102508425,-0.0003707229298157204,0.00037342788212118454,-0.002752643719013881
0.0030519309412817197,-0.00011741356593412138,0.002721058970073318,-0.002089406134508117,-0.005893122004681508,-0.0015077322210759862,-0.000630903550469324,0.0001353492760784571,0.002226441807502338,0.000836819708674461,0.0028102786316399437,-1.7921813045771317e-05,0.0005943689651239157,-0.003201951497754614,0.0006383418786566304,0.0018236383082693309,-0.00040300377502009306,-0.0007898878733610588,0.00012179992540552463
0.0018341679813255896,-0.001298370200607276,-0.0012808437087568892,0.002971874233023746,-0.001574980608488444,-0.0003139476237576642,0.001347742049587449,-0.0017427014076533878,0.0010538190148600838,-0.003295066253518715,-0.0036319251893995523,-0.0024406837432297125,0.0024818447743944947,0.0015575626349622,0.0013007197700775287,0.001102669120814712,-0.0014457282913573892,-0.000696945279359047,-0.002047107597574695
-0.00013062254665079358,-0.0011905682646093918,-0.0018123934508932483,0.002200631092917305,0.0014805448433897934,0.0001863734437927748,-0.001687183297449612,0.0017042279111001122,0.0015214086701789494,0.001865837456447144,0.0026025119663469283,0.0014900285835562595,-0.0006698190606614957,0.000583567303147326,-0.0023321134973871113,0.002490431603321905,0.0022217624897069785,0.0033050840606369462,0.0034311951222906266
0.0001726492440920873,-0.0009956912309884113,-0.0030628707039430385,0.0012203543277330697,-0.0010249276533511942,0.0029541749565406873,0.0023349962911233947,0.0036889601758135254,-0.0010114835270555046,-0.0013499070853356392,-0.0009287610133492606,0.001274454575502696,-0.002498023570420112,0.0012892374046419082,0.0010502719646303257,-0.0026191759852639473,-0.0011247791439200233,0.0014537201065306826,0.002435188067004235
-0.00161667710586766,-0.003500018898049881,0.0022505743712333617,-0.003052421517396637,-0.002435435537066765,-0.0016462460066367117,-0.001238700650798865,0.0009127880545449666,-0.0019174583910636918,-0.0024855142982849513,0.001344373202832095,0.0008770161331358087,0.0015518540706823379,-0.0006727408654188981,0.002859679324104259,-0.002961414845774683,-0.002855380880545982,-0.0013837428852793749,-0.0018108794931078435
-0.0004777970728988467,-0.003125312346461732,-4.069211705788342e-05,-0.0006220310278995359,-0.0027121145358111436,-0.0017563463810518069,-0.0009098994585428348,0.0014514604595840556,-0.0019332113930288863,0.0012880851656242368,0.0008621615436636221,-0.002636401014690806,-0.001052364972624609,-0.002892579517140494,0.0015575999313572298,-0.0015332108666906636,0.00014583225871953566,0.0005380654183593836,-0.0010147577362391157
-0.0007418402495298366,-0.001061038415166219,0.0046397667518511,-0.0003761713203114104,-0.003958118327489227,-0.0009150603769691891,-0.0017974723158241269,0.0009135422687447518,2.6093692695767854e-05,0.003164350922613425,0.0016405670472053574,-0.001634830715036515,0.0003606802217644395,-0.0013814596754542056,-0.0017728083300831104,0.0005189762818176909,-0.0011889839398031637,0.0008577988560265474,-0.0012927446492412475
0.0013231242553917817,-9.909127896010852e-05,-0.0018023649781115265,0.0010037571526625873,-0.0012114893239925097,-0.0035437305301232757,0.005356400567157301,0.001543528692402072,0.0006946428315827486,0.0009501151671718523,0.0002509694006013138,-0.0007858534868732392,-4.287293970093477e-05,0.0032975530308617432,0.0003643434781196978,0.0004167932884725968,0.002402925423009224,0.0033798292842606758,0.0027119003401982807
-0.0009313862451733892,0.00416654937314547,0.00018943983372881804,-0.0021251832398697795,0.0012697288791853724,0.0031075296817315062,0.0010921678322860149,-0.0008591582203426441,-0.0014938022326235637,-0.0016724329175340311,-0.0009282670474329843,0.0023951305925529543,-0.0014529753636271618,-0.0007927058549852696,-0.000976988843899401,0.0011001148906104547,-0.00025168343477778257,0.0016625599901879116,-0.0025216748152808647
5.999553998698912e-05,0.0002917936447556193,-0.0006675110907623198,3.4219983838605404e-05,-0.0022084951432032977,-0.0029003034893053657,0.0004984832275098268,0.0024478350712489557,0.00011547560589529643,-0.0023734030041557613,-0.001954999618865917,-0.0016224023742971282,-0.002885435576223398,-0.003552148164965616,0.002445010634824547,-0.0016649000947442803,0.0016144412913270665,-0.0021497810782706806,0.001828061881989138
0.0013128282799799856,-0.0015234269428722287,-0.00031649339129087307,0.001063755879125373,0.003799014726808536,0.003976494110646604,-0.002804272576285672,-0.002756865881903302,0.0024783098697891597,8.664700518104197e-05,-6.828429523574685e-05,-0.0021383064071909662,-0.0008732317911695212,0.0008493844156543351,-0.0016913960529803466,0.0013782374755382904,0.0025151144954085707,-0.00013007757840445474,-0.0025812923945840497
0.0016669528781317678,0.0023827892703330643,0.002303638769880765,-0.0014815592462676585,0.0020254139023204274,-0.0005929356613405967,-0.002440348776366326,0.0024100444691074426,-0.0003285012091049786,-0.0008586354357764331,-0.0020275612051184246,0.0018364272153700162,-0.004728067731257109,-0.002321308156385946,0.000341023794173858,0.0013817357555649264,0.0006909625824478476,0.0019417989785564442,-0.0017290004085954332
-0.002436405317092012,-0.0031690236831993547,1.1971819260001713e-05,1.9461988029502667e-05,-0.0004935278422728384,-0.00014830729542213554,-0.002736209006788728,-0.0011200139109604887,-0.0016634388505280325,0.004197741899303599,0.0016659562626642208,0.0001463625666265381,-0.00033544910266046306,-0.0022589536945581182,0.0009898711474533592,-0.003493233007945979,-0.001378945041145991,-0.0007308721108562278,-0.004249932399301329
-0.002279695615969481,-0.0008349787799720449,0.0024213579921770717,0.0005745893510209157,0.0030883898093687443,0.005814475864470354,-0.001983873152025459,0.00037710378408124914,-0.0028385813323902253,0.0009726988022312844,0.0018289247757160016,-0.0019159013725983164,-0.0006327438635098204,0.0018154778005032791,0.001035475128859619,0.0005124945453045559,-0.00029429911257602937,3.791002949894093e-06,-0.00014610442337793512
-0.0002652621748558698,0.0036343227265830634,-0.0005727932468196648,-0.00044886357251124086,-0.000359331121475994,0.0005229278520030073,0.0021955183757803695,-0.002861383289703905,0.002200728343621444,0.0035624854299651605,0.0038816491736745396,-0.0015661546147824753,0.0037985961773573055,-0.0010431617660632425,0.0030228737985855806,-0.00160245801157933,-0.0014526929429645385,0.001943013575249977,-0.0016438423816795594
-0.001912465445977612,-0.0018753871791251607,0.0016810671112513318,-0.0006912035344474359,-0.0011244563553963335,-0.0026498508274641164,-0.0009506160200120629,-0.0007396698609338128,-0.0018746172231428999,0.00032609668031096224,0.0012683330201794922,-0.0005437710068932899,-0.0020232629895137917,-0.0021272564941538672,0.002161344626388121,-0.0006881715496730949,-0.0007582864370055374,-0.0010257297844120821,0.0013220279720092525
-0.0018727492837969986,0.0008852362182099658,-0.001101011793893236,-0.0033848103363182435,0.0030150068715322606,-0.0016587059926207568,0.0016807503852419056,-0.001503247633628552,0.000434486398028181,-0.0010589604612341167,0.0036410980850647744,-0.0013522603250762568,0.0012972404402370817,0.0035221359999486413,0.0028954051049008196,0.0010438599264022991,0.00012541319508239124,-0.0010787234430561772,-0.0017987700407867265
-0.0011262282325481229,0.004433012754509896,-0.0029779527673274896,-0.0030680357820017604,-7.012077134284283e-05,0.0006049525148904535,-0.0013518852955660672,-0.00015298100566833584,-0.0006260869801315998,-0.002243269210337809,0.0012012042111270516,0.001039753280154327,0.0004800771709535779,0.00523165276098595,-0.0034905444486353736,0.001292190289399832,-0.002936543757841882,-0.005374213534643705,-0.0032952779370439608
0.002036365107243438,0.0009908897191290326,0.0011389145115677562,-0.0027699336660526393,-0.0007795412555936646,-0.000860804568975521,-1.7597768137191685e-05,-0.0015643790997893025,-0.000989768615916733,-0.0010491524728468587,0.0022713461102917038,-0.0004046677173514535,0.0003393037320540352,-0.0012237118448940754,0.0016908940924886813,0.00034522435415735745,0.0023447403285373775,-0.0005865574538371751,-0.00025735365568586686
-4.9298215549087905e-05,0.0003331829707221736,0.00200352165779745,-0.0005879562357161801,-0.00014213416956946077,0.0032590505351360968,0.0019468889434526616,0.0011756582652332006,-0.0018212310202509068,-0.0033429678426936398,-0.00036098491094848636,0.0006551170045606586,0.00018517256163000408,-0.0001915353179711418,-0.0017846456122348187,0.003189039302570324,0.0009456583039295245,-0.0021340891602925605,-0.0008572395711619336
0.0003368725488974893,-0.0020586529821856126,-0.0011155590298239312,-0.00036972299769505717,-0.001291505283782248,-0.0029960522493499603,0.0019622042936111228,0.00010320730078756798,-0.002718385335132266,-0.001557105825133886,0.0003707702589821629,-0.00035298728226474904,0.0007624501345670108,0.001011100829976401,0.00014559335476208138,-0.0020738784284578624,-0.0010833879165880458,-0.002188267933305971,-0.0001687105758338794
0.0018280541834327384,0.00037878495987738554,-0.0011828017202146826,-9.043662701690166e-05,-0.0043092782627056365,0.002184191529537582,0.0010819653210064185,0.0008795173085855196,-0.0010035623653104054,0.0013939916716100545,-0.00206242537536576,0.0010976523974130057,0.0009505967730797591,0.0033328421702566277,-0.00015221804687852683,0.001094719297637913,-0.00214296971918782,0.0016296848384267184,-0.0006938793790508534
0.00051306450579847,-0.0007041854823363024,-0.003819758125870396,-0.003088098998560809,-0.0015334229413104254,0.002200920714231067,0.0016824853684295309,0.0001858692957913549,-0.0006163692338454241,-0.0005373449242393474,0.0004105444516144609,0.004877549167216501,1.8459946476114992e-05,0.002139805512967675,0.001814913549499369,-0.004941012318674357,0.00018714127720292835,-0.001392251481000845,0.0002646894164897669
0.0011759840017786464,0.00231127871027143,-0.0035586434720953145,0.0020696085522227663,0.0010476852871101382,0.0018455223947570999,0.002569608938744327,-0.00022539892476305677,-0.00017184781523925955,-0.00042662799278857304,-0.00506652889869518,-0.001249368503647548,0.0005806397353187257,-0.0032292425321107277,0.0009735734506955932,-0.0017081768670654696,-0.0010637421884780462,-0.0017645593349990977,-0.002004095975908034
0.0020081992916204665,-0.0010281457867138148,-0.002146351690070683,-0.0009317504468504549,-0.0012507015085530813,-0.0005658753326216286,0.004080613964520763,0.00024208065646767114,-0.0001067967315314047,0.00014926288101305133,0.0011767579225288435,0.0020852448305733475,-0.001174091246273405,-0.002517879655916637,0.0007800870209554941,0.002596154298862691,0.0006385382180078582,-0.001814584540922438,0.0018407942764750126
0.004197398299576513,0.00033891679753045496,0.0025529812535890475,-0.0030182908070217752,-0.0006163832375104535,-0.0010909060054096092,-0.0023161021626303003,-0.0017274359300860722,0.0016009380679164115,0.0037608427716983046,0.005272821644497785,0.0011247157304917535,0.001222992290018969,0.0006987340808543543,0.003443103437485324,0.001348384856076942,-0.001902643868393872,0.0006915887064416498,-0.0033699326164102436
0.0016740875762072682,0.0028713576761606094,-0.000968541899700684,-0.0008647749714696193,0.00019696175696997712,0.0008056518929433182,-0.0002958654253903053,0.00040302374321354487,-0.0038174679602231434,0.0012073833072609643,0.0003305200273881543,0.00034920256360321787,0.0005416275861915888,-0.0005624647114156021,-0.0010763564960510586,0.000977296619384134,0.0015793667244168798,-0.0021902265048698685,-0.0014937800889474931
-0.0031946521122301567,-0.0021259180665710144,-0.00224515463652347,-0.0017678279600724942,-0.0006297830837220484,0.002835518773737614,-0.0029116491984664127,0.0012468752460073026,0.001497299939593162,-0.0032132695307866646,-0.0006419943739989209,0.0013455242993704744,0.00016084183642749885,0.0025204797398494607,-0.0016455692578211498,1.9580883356776527e-06,-2.0800042388010752e-05,-0.0010517140740544425,-0.0016705964885247162
0.0009430730491239611,-0.004095610428420967,0.0006103130715105874,0.003018847460189213,-0.0010790671000891067,0.0021905065258873645,-0.00016575753054814133,-0.0005947874154849859,-0.0026277338866580505,-0.0007869120237951449,0.0028206992629637383,0.0003775423350898211,-6.0278216943570355e-05,-0.0018117393695916237,0.00037879452146187423,0.002221573516757026,0.0013448376597063965,-0.0003056203471164894,-0.0009641144466128235
0.0020727334312561126,0.001956953040584059,0.002620403952734696,-0.000775104021610718,0.0015299347232810602,0.0020796493133959774,-0.0003825323535501552,-0.0033226454639851554,-0.0020517388533812467,0.0009611755679047405,-0.0009682405912156161,0.0011834664328017567,-0.0014296615571263225,-0.0019125409110321318,-0.0024227991889852053,0.000535130737369804,0.001150238397485549,7.196386929889849e-05,0.004321387733412894
-0.0004182548535289927,-0.001238750886169786,-0.0003251117432342049,-0.0024776838012139325,-0.00047047666573284597,-0.0010003497516340362,-0.0007408031155646938,-0.000715651580164879,-0.00039999718985271734,-0.0009075746205248762,0.0007734970667644211,-0.0016851123358896459,0.000998517877409742,0.0010545300097936,-0.0025063183564121754,0.00241778467684853,0.0018332231980236072,-0.002832902773336647,0.0025676255719160657
0.00010663871301670371,0.002283487447344833,-0.0011615943096419741,-0.00267519917045107,-0.00209971775762726,-0.002995731130184596,0.0038701401230956055,-0.0007088707954701942,-0.0008261444951608248,0.0006548705756406085,7.326355796546008e-05,-0.00265978389761732,-0.0018580062047874938,-0.002112778968335702,-0.0013155115263505887,-0.003934696734535649,-0.002254629092145647,-0.0004441662927636211,-0.003979043836188719
0.0012769008471810814,0.00413754475751332,0.002622278777743986,-0.0029254926418852585,-0.00012677119474452923,0.0026869243652658716,0.001245171300943945,0.0005387705384822201,-0.0018294353917721142,0.0010569645279975717,0.0024265728957470773,-0.0015109823965544493,-0.00131510352228724,0.00504184856614525,0.000389682454478942,-0.0011047236126233585,-0.0014111330078534815,0.003958040978320022,-0.0005915755540294237
-0.002895002436626736,-0.004274861147703394,-0.0017453952981480532,0.0015284259651095363,-0.0007291862829913318,-0.0013134129072295661,0.0011846748875516105,0.00035518715190895257,0.00019615471308154017,-0.0006976223587177011,0.0013859487544410462,0.0015343669901305987,0.0009455373508959018,0.0014062991400881095,0.0016741743172086277,0.0024455985417398277,-0.0005459190067782528,-0.002542645279997319,0.003370645161489081
-0.0017456928425237611,0.003729556640907821,-0.0003363795154977281,-0.0009960242883921312,0.0004417768004400927,-0.00019683937437804802,0.004840604862531507,0.0018600592848337049,-0.00032414105318090853,0.0028410934050308485,0.0004305677082975917,-0.002969269177989104,-0.001110190585801394,0.0005016753574014245,0.00014379701134543686,0.0010078245354639016,0.002209731243215457,0.004073005085564566,-0.0017852506260255072
0.0002585988714933216,-0.00024866633193569083,-0.0007993886316833895,0.004954489927062705,0.0009584260416158645,-0.0019595434860169548,-0.002329541140798691,-0.0005113279967560286,-0.0029771986414475755,-0.00037620850895838683,-0.0011667738832899087,-0.0023526422457605736,-0.0024436400346688385,-0.0001258750245946699,-0.0005413941122253495,0.0003594878629312248,-0.0021732607593726787,0.002620291489226988,0.00015212387836840453
-0.0018266243964890694,0.0008235153680025961,-0.000786052887453628,0.0005083158339113376,0.00035376323299120467,0.0012924698095708208,0.0029260951534543747,-0.0016893591861792097,-0.0030731119476876357,-0.0011959649312282708,-4.3794372146847356e-05,-0.001945022460281749,0.000759807936474377,-0.003050553079540226,0.001498194331670728,0.0006543756962819683,-0.0023982944554936025,-0.0014050036988664987,0.003041214945697804
-0.0005931925022689098,0.0006399698070848204,-0.0026873788408444247,0.0002654491178431038,0.001792356657093708,0.001120946127059795,-0.0008361908165979406,0.0012536064821990754,-0.0017839508656487214,-7.218901349214768e-05,-0.00013992378503534348,-0.003436442976200028,-0.001077652688624937,0.003036528212739978,-0.001376463243334769,-0.00038981493149504125,-0.0021614990754271054,-0.0035239885154306825,-0.0005629122790015158
-0.0019011823696694107,0.0006057439865138149,0.0017016886671441457,0.001326762011000741,-0.0014845468952181802,0.0008192764689534525,-0.0008980185637867112,-0.0038179994202488824,-0.0012437229819831838,0.0003256393377778477,-0.0022336253972459045,0.0010036430096965557,-0.0012873631355081907,-0.0018593503973979694,-0.0029927458134427942,0.0009876652028235372,-0.001767901449161458,-0.0009542907449199077,-0.0006268708388071174
-0.0024269445894090974,0.0018273948622020333,0.0032231024930036204,-0.001998535149170576,-0.00026356802368994144,-0.0014132299587000536,8.169445557915262e-05,-0.003727648779227904,0.0008205274288123955,0.002999455686064438,0.0006064127786893269,-0.0037440198514323165,0.0012981429409393219,0.0016396461881540388,-0.0011591240015736259,-0.0016067622381006202,0.001705870363117542,-0.0011081710649626278,0.0013375360231438038
0.0017908721692828033,0.0010409100132931668,-0.000224298556137934,0.0016637547867342016,-2.3228309366557422e-05,0.00261501047474223,-0.00040297093529849414,-0.0022734117622649416,0.00011403799800256746,-0.0029835962307037034,-0.0001978332757199148,0.0013407899670723842,0.0010337113855991209,7.16627665587369e-05,-0.0014555117190286208,0.0003914105857130145,0.0023010841332603703,-0.002512304029708114,0.0005286567803913509
0.00021079215731382037,0.0016094146169380655,0.00034495904298458425,-0.0033208076365061293,-0.0018282647690037665,-0.0030281710245713194,0.0008414975726387426,-0.005275606233422936,-0.0008899318483894258,-0.002623630681225547,-0.0025510964996926103,0.0014301802535841102,-2.089440520551127e-05,-0.0006774597638510604,0.0019821835366612343,-0.0013797483283872617,0.00015873456387626784,-0.00245085131453148,0.0011584470964007265
0.00022795941366822353,-0.0014393603592361835,-0.00010911192255303461,0.0018336671085912868,0.00038815993502598183,0.005036456740675545,-0.0010472631365484647,0.0012603401882262204,-0.001878670322777269,0.0026279201705373925,-0.005078036497778049,0.00014264118795882027,-0.0015735191029981053,-0.0008057921780115495,-0.003961489421357918,0.0015116495585639645,0.003816584151386934,-0.004312221485283987,-0.0018645246355728517
-0.0014722297804047877,-0.0033831719261677023,0.002979950163495695,0.0016046819665530506,-0.0011020058426148287,0.0017420691684451376,-0.0016949376045239134,0.0002913721552100101,-0.001635646843197634,-0.0006043597331385105,-0.00013811736207779165,-0.0013106785765312449,0.0024677670410718964,0.0027693557981906666,-0.002970984896170031,0.002120131349812604,-0.003400233677230532,0.001178809131516959,-0.0011737992954071444
-0.0014819982551823863,0.004114877352025407,-0.0008739562301035932,0.0004346905603638004,0.00040339772110458804,0.0013312358353160156,-0.001805635191860006,-0.004601021740728503,0.001238944967530724,-0.0014300720236215523,0.0007245524331106046,0.001028108835626106,0.0025509001442038798,-0.003128313238351577,0.000249612309933205,2.3490607726574556e-05,0.004160290035304686,-0.00260435030865372,-0.002471396335446158
-0.0012209405189652926,-0.0010627477992452674,-9.104711595425954e-05,0.0014325243172844842,0.000754726215189422,0.0011106288323125934,0.0027178400756239316,0.003410317518196176,-0.0029869039619798286,-0.002431884560490234,0.0021804341607669963,7.713934085587552e-05,-0.0014163971969806414,0.002030551385700537,0.0006641394391180134,0.0009335884158255398,0.0019728712952673273,0.00016748394165626168,-0.0017143981121738171
0.0015436969506690704,0.001293651751572681,-0.0013777239773460576,-0.002704609272696743,-0.002571686386536007,0.002004396262148529,0.0012639078287576164,-0.0008544826115902497,0.0017289718525939552,0.003494244531408973,-0.0035686082395111054,0.0001787185806698412,0.001331909690603287,-0.0027047868492871057,0.00017287783574030245,0.0038155151616807155,0.0009710810584676274,-0.0035548673845230325,0.0009265494482948049
0.00087923761854752,0.001112573094537642,0.0011768735348441288,0.0030126774917308098,0.0007685597223030262,-0.0015823963192605932,0.004266829991088739,0.0005443722470404767,0.0015791565406495485,0.000813838623929386,0.0025339995201833923,0.0006351461761373022,0.00045900090217450783,0.00014802182434766803,-0.0038536759172890954,-0.000856044332678778,0.000755152974400257,-0.001268972863605628,-0.00029786476026229686
0.0005615265609168554,-0.0010630967187060093,0.0005875512689006569,5.094692175152631e-05,0.00024831224546082944,-0.000783058820914669,-7.40591216982289e-05,0.0013637864109138991,0.00226371094158178,6.582101390192256e-06,0.0025037519187773058,-0.0006721884452402431,0.0007130154665024452,0.0003074746588169359,0.00016402746621510425,-0.002767510999176926,-0.0013380851807101824,0.0004640963979907635,0.0023402511326998587
0.00038590569287830575,-0.00194511026230959,0.0027384218107152497,-0.0029367692786799824,-0.0007001745010462472,0.0006644611196043774,0.0016784656183713347,-0.0009558821039260573,0.002544442042195656,0.004411025456927935,0.0003481618084180944,0.003139745102345806,0.0008446268416018519,-0.0045528570357127275,-0.002230300590148677,0.0021498514132646247,-0.0004885712614521455,-0.0024849896632065586,0.002211180344241397
0.0009019439496943597,0.004019176165304878,-3.526530978850356e-05,-0.00036361451952105975,-0.002689965763663699,0.0018942366658453913,5.7331745695227847e-05,-0.001660268121045389,-0.00258433500995999,0.0001951927446723203,0.0005456930070310168,0.0006966079156140342,-0.0032200317885519203,-0.0020615389717122084,0.001415330591156977,0.0011870140789793809,0.0005920084247792452,7.932854449743924e-05,-0.000820382009659107
0.0033033064356588486,-0.001813929421026864,-0.0013724618012917603,0.0004015997909832912,0.0025082460901749834,0.00032340422308652387,-0.001186426680562153,0.00032057044376129236,0.001093823853907455,0.003766940343097124,-0.002052230512127018,-0.0024223639060750152,0.0006455608600955438,0.004045372458114355,0.000757731240280734,-0.0011481171008871237,0.0011342211112376974,0.003414103930903146,0.0005881873363937235
-0.003524273119278851,0.005238880263457214,-0.0009774999006377939,0.00021832278577135403,-0.00011778259533373537,0.004953112014152596,0.0005859097657067478,-0.003146148060904619,-0.00018816115342189303,-0.00011319472092230279,0.0031036257656248665,0.0004580053419146088,-0.0003435542934435221,-0.0013165289782750276,-1.2269176074251803e-05,0.0014861372099212412,-0.00038238438329963416,-0.0014014676829107256,0.0011169414194623542
0.004021950555928805,-0.0015104970167842792,-8.240430328114679e-06,-0.0002214146453318285,-0.00013315024246287588,0.0003839323519599477,-0.0021230850336142757,-0.0007414897187869679,-0.0016725844944448526,6.7826028515806525e-06,-8.857518663633778e-05,-0.0017993345775453402,0.0014790590435037677,0.0005194411839446088,0.004107113862910175,0.0003354806381748746,-0.001798928795624064,-0.002845562344700732,-0.00038796015048437894
0.0005595062556994806,-0.002658410181333226,0.0026032912903215643,-0.0052128469117596835,0.0017644215070540526,-0.00013606955901318535,-0.0002637594599876716,-0.0002713074525414966,-0.0005161242007456771,0.00076007497384899,0.0020060449529235524,0.0006958538494111272,-0.001793807470694093,0.0008127982419141806,0.0035411919926996017,-0.0024382890070245127,-0.0030829363899605787,0.0003553282314239888,-0.0011051040697013868
-0.0006469203659627797,0.0027232993707009888,0.0003409532984785081,-0.0019107694259102347,-0.0002151483210755213,-0.000552096961211908,-3.412926032775821e-05,-0.002155404733616555,-0.0012774894655304188,0.0011820142904539507,0.0025338624705118066,-0.0004563076292348691,-0.004825612238741068,-0.0007155303307731577,0.0009973500973781118,-0.0035430913472079433,0.0012533289035086708,0.001570723715687675,-0.0004131523381595554
0.0008594839369038207,-0.0014048386195976668,0.001090114669925188,-0.0006159843071310796,0.002237996528387086,0.003143830122917437,-0.0036191907812050234,0.0012041701115527424,-0.0005588018395809826,0.00018076270640120148,0.004172747362055793,0.001043413756896442,2.146161344435885e-05,-0.0005033368739591529,-0.0008477904598772955,0.0005717191790976157,-0.0009099726213344924,0.004752078896008171,0.0025939756156819786
0.0008154838169998764,-0.002533563896928375,0.0003288652686990789,-0.0026222191919993334,0.0009587228019129185,0.001505869865088574,-0.0011955077237831868,0.0048354541146896635,0.0021985257028710264,-0.003298990905748783,0.004770958815981913,0.0029164497180038705,-0.0012209646855870337,-0.0003120820944349051,0.002043099915131865,-0.0010164218311541635,-0.002952630205637499,0.001471059976235514,0.0005862313175634525
-0.00014974455118562247,0.0002564454655356475,-0.0012186459684263768,0.003186259688951409,-0.0013823595308232624,0.0013059998974004274,-0.0003628019053335824,0.0012636981368443552,-0.0005564780100518859,-0.0016817934582401572,0.0030151406588185734,-0.0010058788150550206,0.002780117436403585,0.0041023300459214875,-0.0001196329985620797,-0.0014828070543975145,-0.000458039996649793,-0.0018996600664648968,0.0004316900595056721
0.0021848431747828086,-0.004844177612183195,0.000372124933627766,-0.0017083329605781686,-0.0006909370082971516,-0.0019273440795634646,0.004249390997561679,-0.0005489677877120138,-0.0032733099047912704,0.0006946357163516011,-0.0009313254873836218,-0.0017485415301767393,0.0014380427098910904,-0.00020809833933809813,0.0028288100993706065,0.001304569053465889,0.0024589324847079748,-0.0005809978311239435,0.0018849413653326125
-0.0021525080115380093,-0.0005931001232687886,-0.001332746968656013,0.0008562514261258574,-0.001373431511588776,-0.00023620731463059013,0.0013397430913698852,0.001072255334527186,0.00035187071430935966,-0.0006133137706067102,-0.0008019784541082088,-0.0018317908064345912,0.0029932663619676204,-0.00017734141586346502,0.000587410303761005,0.0036338527008781176,0.00010694799853517665,1.553237511465865e-05,0.0016691322375493492
-0.001959589518185409,-0.0011468352086318075,-0.0006377999614216681,-0.0013108190172001378,0.0034241214179400433,-0.0007032225152096698,0.0006016565516150667,-0.0005947275530622046,0.00018763240953527773,0.0020158186807354237,-0.0032387142215260555,0.0019071452626539588,-0.00028991259726820947,0.0002703811716135641,0.0011289364065538343,0.003406967917303603,-0.0006907290959320899,-0.0003373401749280519,-0.00022719987442989156
-0.0009393106985055224,-0.003090484272521463,0.00015454811641428434,-0.0014289072810657404,-0.00164888630155456,0.0005670261791780724,-0.003079915679383279,0.00012026017679887277,0.0047272210833175475,-0.0027579795827772885,-0.0024464846493519594,-0.0012235674515768736,-0.0014859191286907523,-0.002045944028174314,0.002751831136537392,0.0015866700809424154,0.0025323443831474957,0.0007786478190639745,-0.0042999881322531575
-0.0010531132933855793,0.0012172970104672458,-0.00031505595543136603,0.0006564310471880046,-0.0016752175232887677,0.00029664703009364425,0.0012711935303164534,-0.0004603944772889203,0.0010750164408666945,0.0007309890127141841,0.001931518587919149,-0.0007158931289293236,-0.0017473827358369955,-0.0012890491425802126,-0.001616858918731522,0.0010496111550885407,-0.0013440661940623657,0.0014171132598693496,-0.0007164975827210036
0.0005850294488337921,0.00037609162420670765,0.0006962617493930844,-0.00092366201495774,-0.0018768521874180583,0.0009746814451193405,-0.0023342685548359957,-0.0030706103005404208,-0.0033675796015272593,0.004668792889589555,-0.0018802941566157044,-3.67749598866004e-05,-0.0023173397153282878,0.00013275351300773828,0.0013547021681322732,0.0012589234097414113,0.0007878243510315426,0.0008247794918207053,-0.001716766689472302
0.0018883572986021907,-0.003576459661679277,0.00011843104863125072,-0.00048822882921540343,0.001647935247480359,-0.00040323328501083337,0.0005596575428875035,-0.0035918649287410968,0.0034059738902071394,-0.000713465827853361,-0.0008901003386448587,0.0011460147538979693,-0.0022087212218697915,-0.0011102107142601245,0.0010872144553073628,-0.004049816162286229,-1.717564292646683e-05,0.0016116824110966026,-0.0009107170199706082
-0.0007791348869910817,0.0005297216189116503,0.001054205488816573,-0.0016624378489830199,0.0036090391489498616,0.0015219416787216708,0.0011242285481642019,-0.002300571507490922,0.0002307007602444782,0.001508591709417314,-0.0011200655893664738,0.0035465501614441114,0.001853145330883957,-0.0020936313708756972,0.0006849760028100632,-0.003918302036213899,-0.0021032907559853467,0.0013085159338719623,0.0016995116645115449
0.00013274323457498883,0.0004760906029450278,-0.0026649399498470034,-0.0007788349495731855,-0.001024179808911826,0.0016060485349184124,-0.0006858145503857166,-0.0004429991773371621,-0.0033781769236941616,-0.0011406641295496549,0.0029482914723870804,-0.0030759942576871475,-0.0023724173700710414,0.001324046185567805,-0.0010545611465937322,0.0017472341209600637,0.0014889889010443816,-7.798437551961508e-05,0.0017980451072242486
-0.0036584445404450397,-0.001652114250928928,-0.000414388963708247,-0.0033812910104607553,0.003011434186321951,0.0015048387920282966,0.0008893540374891861,0.001410066412525048,0.0007320203968615573,0.0028884432330248907,-0.0007513411579802637,-0.00014705731300272234,0.0017201332376838988,-0.0033937035142061773,-0.0014981758860056556,0.00015496713949690252,0.000939614722422938,0.0001212246752685251,0.0019240618653944472
0.0030895227136278017,-0.004747630023095874,0.003234405740100941,0.00013855592868828977,0.0013987228624561868,0.00018319807674982877,-0.0019566160856745373,-0.004309053585738341,0.0022431359394472143,-0.002433658826559995,9.71265775560227e-05,0.00024076306428003064,0.00039727782027598876,-0.0030772625621329226,-0.00042765195333792084,0.00235327456962932,-0.0015174971441278746,0.0013754292081609055,-0.00363502685722371
0.0012214703884745773,8.990750996235939e-05,0.0006182391519719898,0.0015541682333295487,6.924647096439431e-05,-0.002694993166035976,-0.00014723070442507392,0.0006857747813745565,-0.0010575315103562321,0.0010668652059813185,0.00010394003545923595,0.0016269521147839585,0.0013046260892140072,-0.0024549428466329,-0.0023260698557429522,-0.0009744676943729953,-0.0012331528618811426,-0.0019741888410972834,-0.000813098697510672
-0.003875645996434217,0.0010187027709456275,0.006111622806184121,-0.0012199456959862385,-0.0035833162847104805,-0.002482186775907159,0.002922029692450773,0.003388498620071135,0.002700237765409791,-0.00012163094344539569,0.003939209281949321,-0.0007671918868160964,0.0005806091205202441,-0.0007497772458134555,-0.002378557739860034,0.0004394846879958801,-0.0006480853090051364,0.001149711733345455,2.840114888210926e-05
-0.0013699969084178107,0.001063757933447732,0.0017751814119453988,0.0011325582989654035,-0.001978746665180096,0.0007619828737788765,0.00522209861969484,0.0032137875352332822,-0.0015408257033013633,-0.002213677007683249,-0.0011682357093028288,0.001029804074253463,-0.0011969697261573996,-0.0044009301490125245,-9.84785105974178e-05,0.0005668302382453152,-0.0016373125226207769,0.0029491144489519226,-0.0012050772865259314
0.0006390044564811715,0.0007306098415824128,0.00018808705831949445,0.0013703118877901235,0.00040126729637574346,-0.00260980278746126,-0.0023402436053927274,0.0009380406134765238,0.0014656686225349622,0.0006403286442727821,-3.137036086890896e-05,-0.00015101880330764235,-0.0005759795266570703,0.0051240942767588225,-0.0006659021080364501,0.0006069255521267973,-0.0015110603803827147,0.0005768197606302581,-0.001633303769478285
0.002422035986307401,-0.0030171666902569483,-0.0006048796977749,-0.0007032631450750333,-0.0013960091800741567,0.0013279527030915497,0.0015056436793634109,0.0009868650621476492,-0.00038652517359827066,-0.0006858138215171327,0.001615360917776087,-0.0007464754526033869,3.939402467842503e-05,-0.0037707527303130184,0.002177544657512448,-0.003159509096427775,-0.0013749483731303747,-0.00340108010896122,-0.0009297590360709374
0.0009271535123992558,-0.0009769648733652066,0.000965634436856803,-0.0033992577015795407,-0.0002092478683371323,1.407985010511459e-05,0.0011297832686443005,-0.0021529961206450364,0.0019784251587385247,6.643349596892411e-05,-0.0006651471149891628,-0.0020208637735064264,1.2649699838380423e-05,-0.0008913213847975964,0.0006230108922463727,-0.0015825903533981985,0.0024056657332536687,-0.0007967673252741149,0.004019627007854346
-0.001822254173752568,0.0009545523894088603,-0.0033051150991342546,0.004778433903519131,0.0016958571466202856,0.002535626084281796,-0.0023422260238281684,-0.0014131424071899433,-0.0025320449416425216,0.0012274253818991443,0.00041472115999935963,-0.0015643416083241202,0.0018669112171417826,8.80117194782861e-05,0.0033236648215403237,0.001215033506036226,-0.0009341189088107851,0.0006884304526392103,-0.0007304587255047078
0.0010649470137755732,0.0010516951440200295,0.004123716866077314,0.00011197557556918331,-0.0002638854008270298,-0.0006730372649676312,0.0009508690337422278,0.0008904628252053383,0.0058648002701714,-0.00036704658329977865,-0.0013946663475184016,-0.0017464559060392567,7.477220205456062e-05,0.0021056333659195824,0.0022673678879360473,-0.0009688589124571588,0.007529463352056156,0.0023617909302175713,0.0005526357209646107
-0.003790995546403062,-0.0008428561857565793,0.004465415452843518,0.0013785733223457277,0.00013995210344066865,-0.002854502697712144,-0.0022380412914014777,-0.00035817122886431493,0.0012832208428851981,-0.0028415355998313466,0.00035172299647727597,0.00017742190761391253,0.0005648230086120617,0.0017220656776796668,0.0020289908438184566,-0.003886809238323382,0.0015764546226680607,0.003980677695925567,0.0017558381505800769
-0.001653571035866391,-0.0010680487528283056,0.0031381646682086084,0.0037407671845709205,0.0007026350846989643,-0.00039919591411205426,-7.814288093345311e-05,-0.0001535576626605112,0.00034914005791529664,-0.0038559622638538655,0.0033349899936525166,0.00285350114042646,-0.002600470604697386,0.0008149796428232058,-0.0006998634190454468,0.0013639889528634726,0.0015755471785254178,-0.000677598696558693,-0.003014119862616735
0.004871460145023388,-0.0011662418085922098,-0.0037122728467298732,0.000897363150061296,0.0012161830126904724,0.0006912300913048541,-0.00017879226249280835,-0.0009487395744183436,-0.0009849903589267592,0.000412513722590148,-0.0008124180243336379,0.003640937326741259,-0.001964847289185659,0.002943822631604923,0.0009815941844398702,0.0012608839589613547,-0.0008823613460581987,-0.0009968598240047174,-0.003205776334543697
-0.0008780429755397347,-0.002762356892508392,-0.0028490303105842656,-0.0018355072189047978,-0.0005928557182217879,0.00024496475713683713,-0.0016489455074750537,0.0018919216460603124,-0.00036234919125402676,0.0032709603632957514,-0.0008767775599441094,0.00399087064880524,-0.00022794355878338776,0.000816954547090971,-0.005704625689672927,-0.0030841614859486634,0.0035146955901096417,-0.0008964307140491005,-0.001202218214248563
0.0013227131403644391,-0.003065039217677571,-0.0013690399973723807,-0.0003463651692985192,-0.0012274181776205156,-0.004400764622139126,0.0028883931609457116,0.0013701827117237888,0.0017758996620394114,0.001769043020876883,0.0029725081860426036,-0.0007356763638618156,0.00034510317276464735,-0.0009646639569545242,0.001111522031766369,0.0034710259732282315,-0.0004136355413785863,0.0014696903858580517,0.001191102020371182
0.0018611984668055117,0.000630866115827527,0.0019660883827396797,0.001256175116353703,-0.0021499476742654223,0.0037965038330239668,0.0031594240454305214,-0.0012234847069552154,0.0017026570141641256,0.004280281141211612,-5.242128084702749e-05,-0.0027441400869669635,0.00023949349334513294,0.0012210273247980144,-0.0029516423667132106,0.0036105645298666264,0.001700718535631418,-0.002870981785607992,-0.0003873166647139569
0.0018069332421675353,-0.0002705071462344609,-0.0016395125594624057,0.000524571914995669,0.0018296062082906776,-0.0012359490943407978,-0.0008050932886076467,0.00021024524883272414,0.00018488964921187546,0.0023642903420354315,-0.0033446328415398306,-0.0015345488257766,0.002761133676705004,0.0014921141269459077,0.0009694639409896744,-0.00018464088463961712,0.0033562727486340753,0.00010569578758599014,0.0010219335799214527
0.00011412886483569816,0.00044401361344378665,0.00013060473049085087,0.004452561423763069,-0.0009373346429326592,-0.0023480386983777035,0.0004716610393310228,-0.0023590197226526187,0.0034438258937614682,-0.001122987007582973,-0.0020623328212232735,-0.003083263263187934,-0.002856045803700872,-0.0025797436741507424,0.0009775288944044156,-0.0004820617865420342,-0.0008631465857639548,0.0010084465954761275,0.00025750069260242054
-0.000983466774679188,-0.001983636926012614,-0.00030727888602543864,0.001562127498419614,0.004647478656305023,-0.0003188993399817415,-0.003255260918751573,0.0015680785280680763,0.000331970720852952,-0.0011804579310497301,0.0014317385201217713,0.0026531432077911573,0.0025124977724145367,-0.0021294961644725587,0.0009281642575536421,0.0019099322784346165,0.0012888635183207265,-0.0015013665918993805,-0.001669014986040278
-0.0006379711174291355,-0.0020779225662196006,-0.00021955763010749867,6.892844124708129e-05,-0.0010647761675591162,-0.0012199529991173586,-0.0011335826316183524,-0.0016494676212179254,-0.00044121847612720554,0.0029263329828232197,-0.0020350489845156732,-0.00023476894206029783,-0.0016182077332135077,0.005694270632847143,0.003210393620426616,-0.0013689499943617932,0.0006471159448052861,-0.000808728825818047,-0.0032454100378304825
-0.0004741303428678036,-0.0016496531333711618,0.00021313637094326962,-0.0005883521432436391,-0.0023413541350520333,-0.0016948963255510115,-0.002660367435130856,-0.0018650318684693193,0.0005855145388953012,0.0017572801608387767,0.0012460509090552198,0.00032737709374057895,0.0027332266300077387,0.0008725014538332855,-0.0007319279007373869,0.0013829908372991282,-0.003670365085955763,-0.00025616847139234836,-0.0016708033167416392
-0.0008457322500219944,0.0032044043285141127,0.002376446477124005,0.0020147444997601557,0.0035692179864907233,0.00035136423253115726,-0.00026298764646753115,-0.0018895458707162297,-0.0037668091403722493,0.0015840141800200777,0.0025784767211649005,-0.002062464811488082,-0.001329803455060976,-9.099773390072753e-05,0.0009108672148689476,0.00191046484650523,-0.003260214714914833,0.0018325691549194861,-0.0020849488465751946
0.001966402119469846,0.0012460722967745843,-0.001545702063350088,-0.0011029688242916809,-0.0012450250318767732,-0.0011811102320406928,-0.002146313018934289,0.004755826076804213,-0.0010356882944751583,-0.0039397438512070405,-0.0016668990292009267,-0.0025240367454396353,-0.0015226307884627162,0.002118229933950587,-0.0008682209182748891,-0.0011443686307127095,0.005367731419622596,0.00038721640731119976,-0.002522273578385502
0.001978316922700934,0.0019238633837580987,0.0038588512992517934,0.0013944590888845317,0.0034301683752964896,-0.0002561323541656963,0.001427067234471349,0.0018392377173685644,0.002637412064188325,0.00012260570619011306,0.0011605459483401968,0.0004317872733596292,-7.351408033100633e-05,0.003952286764288446,0.000988865825795823,-0.0034749328189276757,0.001071702880605644,-0.0006729294259133195,0.0016825073134980094
-0.0032425039514508438,-0.0025986255557580657,0.0008194453222717101,-0.0015006564625734218,0.001274407438847731,0.0013882395840657449,0.004467248614698835,0.0032482954230391497,0.001084666705831514,0.0004660387005122699,-0.004698090357493817,0.0016678254049154672,-0.0019202532965488539,-0.0032834824765211527,-0.003225010383904816,-0.00303301049577899,0.0001637697040299502,0.0029458377165386376,0.0013288588673400078
0.0019559457463298895,0.0030925272096197845,0.004033744338811811,0.0016250120546775456,0.0024589979130850027,-0.00036574584596872205,0.0005285371529412644,0.0017249142496034114,-0.0002067949254114859,-0.0010661146442340036,-0.0010261859211117995,0.0009735802549411167,-0.0001539467084831902,-0.0009422513452928418,0.0007074874727880984,0.0015343349834995986,0.0009686657172289553,0.00012225544881963392,-0.002786326657116933
-0.0003623258925918267,0.0007495600452360415,0.001583591943354572,-0.000966631717949586,0.000658275350457015,0.0007540601898986855,-0.0009254520869813027,-0.0011553345351151142,-0.0024250403862094696,0.0006800441388150854,-0.000899101941908732,-0.0022695204728893285,-0.0007199972669918702,0.0020917031256098154,0.0007384739947728296,-0.003407062846829003,0.0011393713002789997,-0.0015315026812770896,-0.0020518806641552736
0.0015618635507495496,0.0005327033398641171,0.0036209512012614947,-0.0009830972259819496,0.0021666284565192754,-0.0012040949452592443,-0.0009392675070114564,0.0012945816102320515,-0.0005013691350382987,-0.0001228898987077256,-0.0021885413781004294,0.0036876466402963326,-0.002123536174717967,0.0020379952817366565,-0.0027196693023808804,0.0009599952285473174,0.0015643052249390626,-0.003052226637410587,0.0009717550261018111
-0.0009093667337628704,0.00015446181449414395,-0.0023712353235618667,0.0011609594406659907,0.0007249192631065668,0.0028770085644203936,-0.001807611584508205,0.00031500549267717145,0.0007700999221710616,0.0012113785478405934,-0.0009790136191226775,-0.002045230875738955,-0.0008120628442481255,0.00020953394496575544,0.0010108409961009025,-0.0002255096780842448,0.0017233163036579357,-0.003440198189575354,-0.001400541280120114
0.003630823403218843,-0.001880663421534714,0.003326135219045808,-0.00040244990173867807,0.0007140330120615911,-0.001741712774971718,-0.0008019807472998804,-0.0005368490098181769,0.00011425764486107536,-0.0008077091624258867,-0.002602029866274032,-0.0004356046012621594,0.0013409654016551958,0.0016120158651976263,-0.0015846021659160674,0.004036117857869097,-1.864742170929884e-05,-0.0010466767061260332,-0.001657270949041109
-9.63232154817461e-05,0.0013052765924702182,0.0018649924781692709,-0.001255326599136995,0.0006003330651964563,-0.001544976343364118,-0.0008321171303645884,0.0007027464353362164,0.0014083822229747594,-0.0019135813078108822,0.002966681953514357,0.003775905549238517,-0.00014063015098484956,-0.0017426161079076323,-0.0020822921526035022,0.0015927436028462054,0.001514519391671374,-0.0037686812621832494,0.006678408567925858
-0.0019180557141823308,-0.0007263896436865697,0.0015198126057760395,0.00036214117864035475,-6.740472708089173e-05,0.0016499307851819357,-0.0016679267934847175,-7.550300035374366e-05,-0.0005852921035791589,0.0016138844046397404,0.0026948673261831817,0.002458413201672909,-9.249896131223559e-05,0.0008651095751031746,0.005595023444161304,-0.0019429187989068214,9.932571925172975e-05,8.377783942967682e-05,-0.0016597644807363685
0.0034565537216089664,0.003048747869020126,0.0008511477391494688,-0.0009645996669504948,-0.000766497967228134,0.0013391230013800846,-0.00047571675951516175,-0.0019447740355596644,-0.0009037581714166557,0.001310401764968644,0.000918946297784263,-0.004239964895139925,0.0004185681377008964,0.00075253468282804,0.00015905534195822824,-0.0003896670289703807,-0.0023109080124203993,-0.0004001181712470512,-0.0029006872861531297
0.0004800265207110395,0.0011026353053305471,0.0016680090016953505,-5.763766705411805e-05,-0.0016747510233519952,0.0005717995155806176,0.0009224632065700211,0.000427671039970363,-8.771784155830201e-05,0.0002177137983415677,0.001086337101814014,0.004148407785651809,-0.0006931095613365085,-0.0012915249111892075,0.001926315070450722,0.00184282759451994,0.0023394252730330797,0.0005528482214785679,-0.0010372639146800269
0.0007023902800978428,0.0002984559593557283,0.003025557610471656,-0.001258488857396056,-0.0024909648987832267,-0.0024640810574223155,-0.00021663144938350866,-0.0005295111995028415,-0.00028585090240429873,0.0021520866468634045,0.001696614325047337,-0.0009710500539985428,0.0019475745836973661,-0.0010454721326668254,0.002683080723604995,-0.0021937733509461758,-0.0008301010083777616,-6.046800519317608e-05,-0.0004302311342145755
-0.0008106580304112666,9.173470762313529e-05,0.00041526497172494247,0.0008094381066269373,-0.0008240745044453177,-0.0008622737216145241,0.0013886778515170952,0.0037093201328586792,-5.993391598569747e-05,0.0020875392620091056,-0.0029842358264578045,-0.0009748098977593273,-0.003753910957505473,0.004504543968300725,-0.0005339842417279788,-9.445822333774647e-05,0.00016258516109101886,6.786416659544428e-05,-0.00144446527019591
-0.002330596543161563,0.0007614753445684529,-0.00040000477493844786,0.00017233988858762945,-0.0031240684374684254,0.0019100749877989196,7.945698726924481e-05,-0.004302586813555723,0.0027381946776843043,-0.0001944400294718229,0.0013293369586919374,0.0024496613987506476,0.001286651603211121,0.0008305586800122439,-0.003997830514698584,-0.0017880328878000196,-0.0026936516961815044,-0.00196210390702235,-0.000947781001576155
0.0017896836056450999,0.004757559590172426,-0.0021155928955239206,0.0009705972080803433,-0.0024850177278043697,-0.002319510674914116,0.0020408626402037126,-0.0028637208497285277,0.0014204843082261263,-0.0013103361101042198,-0.003280014903550589,-0.0032623456477410308,-0.00503797792242374,-0.00036095355419996837,0.0005240375096240787,-0.0004247784649505732,-0.00023619162785131764,0.0008532507605754599,5.8534364652425665e-05
-0.0038213526716171686,-0.0010827222097501595,-7.126239618526105e-05,-0.0009743140235696094,-0.0008384090009334346,-0.0016881529771941677,-0.0017026477964600304,0.0022826183892176127,0.0016479169745104508,2.4454088029534593e-05,-0.002370439034567545,0.002290248678896898,0.0023417523874924777,0.0015758236037861355,0.00020203778161682483,0.0015106037557553263,0.002127251514131721,0.0022315450186614137,-0.002121224099567065
-0.002847959169508472,-0.0034468045752311257,-0.0005347223439099609,0.0020129219265150465,0.0011066199899249062,-0.0036242849668091685,-0.002773148283151508,-0.004220225281550722,6.802807190681136e-05,0.0013522063602853791,8.295862984392658e-05,0.0007324610273983246,-0.0006760076176649591,-0.0016226434659552332,0.0033260109944879667,0.0017218361431962073,0.0005126004326026448,-0.00021392740576711458,-0.0006726888668077912
0.002370894015257223,-0.0027985170425617943,0.001153723593385427,0.00012291734894845228,-0.0013859924772720337,-0.0015478061656745783,0.003517084884338946,0.000953579809171684,0.0005003014969837563,-0.001279976433016281,-0.0012454412848314658,0.002878935103535109,-0.0008293963442556264,-0.0012421211357938203,0.0018953253418361406,0.0008132138560495763,0.002422594687801464,0.00028950431530176945,0.00019831218717117048
-0.00212838058781383,-0.002996539424378651,0.0023281527568549403,-0.0015409886524445438,-0.00312623882676321,-0.0017440711317640327,0.0026393741395605392,0.000859136905881319,0.001125072630258611,-0.0017431342478440792,-0.0011760895900841631,-0.0017855300748212486,0.0037076314332920206,0.002864321191312525,-0.0004527435062982413,-0.0006961343309978967,0.0009694729429130556,-0.0031112110189265465,-0.0038887749767842813
0.0009656597786660492,-0.0007822237574066243,-0.0023059781559030897,-0.00032991051716778553,-0.0006247758061510368,0.0002901303595094582,0.002062758495660792,-0.0009213859459887224,-0.0011017971697697808,-0.002172523835147578,0.0017100254206738744,-9.313251161153923e-05,0.001591022045074729,-0.0007291735302936517,-0.0004788950678929092,0.000671551442917387,-0.0013478762734743849,-0.0029380739853241537,0.0022909372875380813
0.001632079408115683,-0.003925082875341556,0.0010795951183139901,0.002754614135756662,-0.0005661576852952389,0.0004884444260073503,0.00043356000315068017,-0.004294294971451431,0.0002662595301012639,0.0015788027497232228,-0.0029377502723218307,0.00031502205371686655,0.0008415059062961069,4.888451791511769e-05,0.0010971459131519218,-0.003094059009145824,0.0007482342312855506,0.003441044121404087,-0.0014181268031922042
0.0018243921762366212,0.0022773571655799957,0.001618896972132963,0.004023772153402971,0.0053544446630048445,-0.00015691681308939751,0.0016094635147620503,0.0022683687488317806,-0.00027795804804890147,0.0030506691420780084,-0.00022870459562517278,0.0006130179999207644,0.0038813886457110293,8.695510087319975e-05,0.001996800922964954,0.0011509321712373478,-0.0011649765322607598,-0.001802033328191095,-0.0007164759095758366
-0.004149480877418691,-0.004161143668736446,0.0001608098443800472,-0.000913232136774012,0.0011792949776581086,-0.0015540302299143296,-0.0019382478932145149,0.002771378391681546,0.0021214140412928444,0.002978039615935699,0.0019636292125596783,0.0015592962611268712,0.0022663536273465853,0.001877705950014984,-0.0007416781781343255,-0.001091466200638687,0.001168146379286212,0.0007674350001767942,-0.0015553008728126634
0.0004902451498635747,0.0007397023451965844,-0.0003978130824867196,-0.0005483815608193247,-0.002281935490996372,-0.004212676582015877,-0.0011394957997811015,0.002771702017068601,-0.0008152600643714502,0.00041932367563182776,0.0014303367156443278,0.0025468245905790584,-0.0008584387746342247,0.0015321268407271357,-2.6353076104055153e-05,0.00018349731620653152,-0.0004034458270358449,0.00013267094529378142,-0.001004618283944038
0.0021320677651397494,0.0014015958939811565,-0.0011407031159320375,-0.002261783424505283,0.0020322159744219424,-0.0012227921905861216,0.002286785808919831,0.003238685411641895,0.002206444589995392,0.0014858189963242404,0.0039392987720493445,0.001086813864338374,-0.0021298473146278557,0.0007433390184579043,-0.0008527509878237291,-0.0036243753966310696,0.002868153129704288,0.003475486423210184,0.0014293248643180646
-0.005384461347462344,-0.002146958025478716,0.00392170002178439,-0.0011025922859949496,0.0016793027918559004,0.0003430483776575519,-0.0007208580173760477,0.00038120073112473654,0.002247456698659171,0.00010983509856136626,-0.0007383233922837414,0.0010587304953872403,-0.0016259581598864878,0.0017690610464070255,-0.001416712113276227,-0.0003604586437710231,0.0013394469367048252,0.00047987395832358104,-0.0014241929415268672
-0.0025814720171640168,0.00017976507177313688,-0.001746182045442078,0.0009152803975917841,-0.0009877664606043335,0.002728117394270136,-0.0003004777099147416,0.0008089177720363185,0.0005074622455879593,-0.0011248721609216136,-0.0024100217929677184,-0.001277339917811498,0.0003056904627577927,0.0033935888750502704,0.0012323234751036797,0.001973151743838957,-0.0027536565967724268,-0.0042685257822643674,0.0019425633041862084
-0.003222790559655005,-0.0018670181666762028,0.0026896715139475454,0.0015761881710481783,-0.0013558207398887971,0.0007249412127574917,-0.0022170875004728086,0.0005975302201990453,0.0020523044349170013,0.0007931574095534266,0.0006306339919182806,-0.0020620990210190263,-0.002146100309109276,0.002139155603708831,0.00016064329109018172,-0.0010078228953829787,0.002901397504918477,0.0019460026694974942,-0.001088038955379706
-0.0011094143769197254,0.000274829294566284,0.0010975979487630693,0.001964139665625437,-0.000594312446192651,0.0017843582655834604,0.0008593988743401319,0.0002462982510700786,0.0008803151298852269,-0.0009029986988819521,0.00014453708246673703,0.0015783949793529268,0.00044367799064636384,0.0020461980826590254,0.000289040471233125,-9.697172917431207e-06,-0.0022315463796411844,-6.918472592906754e-05,-0.0006738687301629161
0.0004096369136073976,0.002270562220984944,0.0019221666459800996,-0.003310048619991989,0.0011431914714755032,-0.0018953201907778716,-0.0009445351483269942,-0.002738849057602423,0.00023468638955992805,0.002855384758220039,0.0003820942663749107,0.0020633620862077285,0.0011580291287203498,0.003435847437031217,-0.0011712003675697716,-0.0011380059010549861,0.003601661075704768,-0.00037365787232814137,-0.0016769799951522112
0.0023565112835732607,0.0032617063530157924,-0.00046867911889730856,0.0033587961749554714,-0.0018839485272409454,-0.004930439299721847,0.004501324871228855,0.004088548176282284,0.00016318526618317152,-0.001823390145609557,0.00014550227456285676,0.0010951373013311097,-0.0012203919806502536,0.0010120832784865337,-0.0004988921726931167,0.0006860984688483913,0.002976132144935053,-0.0025322464941816467,-0.0006393419537740035
-0.0014683834882424345,0.0009675672025812619,-0.0032330666026047397,0.00174566209868913,0.0007939762757745991,0.0010968941644335156,-0.0009658617730464165,-0.002698162269057334,-0.003126022322071243,0.0019260077310321976,0.0008588831503886943,-0.0013519941419991666,-0.0013406320360544908,0.004115688795877882,-0.00012236167285328275,0.0006913457836825708,-0.0007811268384667435,0.001002231353872262,-0.00043486945915680904
-0.0006981999259092526,-3.071969885097817e-05,0.0009106800553580673,-0.0014099631461636764,0.0015132951617732103,0.0004955757165324397,-0.005712861245802053,0.0003924205622745915,-6.921603926645646e-05,-0.00031571499714632084,-0.0018209179761387848,0.001565560080919088,-0.002412219988810835,-0.0005643319421055154,0.0018477015340558818,-0.0026849822505065307,-0.000678578700159515,0.003290259575207977,0.002668836497597252
-0.0006712029387433574,0.0020710633256525095,0.0008528417592749243,-0.0012079139925549888,-0.0024644158241348816,2.6242293292830978e-05,0.0035632387048782923,-0.00016077402121139847,-4.081386266426777e-05,0.0016109050545526679,-0.002047813686890841,0.001112390959767668,-0.002926365705809026,0.0016398789439345304,-0.0033324266465419783,0.0005338645324262097,-0.0009262494005976904,-0.0004545349294586567,-0.005941378853140855
-0.0013894151027913654,0.0024259684121585487,0.0007190629602280162,-0.001215086153176426,0.00033725876568393764,0.0003433741714880017,0.00010977507283499216,-0.0026730191135210125,-0.00401304329091875,-0.0010417673672242405,-0.004011473578416711,-0.0007202483906583777,0.0036961318658531735,0.003176776935899041,0.0001424412278379774,-0.0017333281914720716,-0.00042221232822186173,-1.8333106525530607e-05,-0.001072718056962452
-0.0002103951077714946,-0.002418363609557722,-0.0016260348382932828,-0.0004912971676023763,0.001336546210496045,0.003974545877949776,-0.001310061574113918,-0.0016293791499003435,0.0016253005283267939,-0.002491318343017974,0.0007317384284325355,0.0010407189653668855,7.442797485343337e-05,-0.0025353728666948788,0.0008225742692994754,-0.0030289717613991777,0.0015769606262735533,0.0015472179712019162,-0.004078410291591179
-0.0024342018353053093,-0.0006363024674002361,-0.004869903835212844,0.0009263434323616204,-0.0007530995611218359,0.0021574902237964386,-0.00030864106461222693,-0.0002538812468616246,-0.0013911729081331604,0.0016452971923075679,-0.0015490001753449198,-0.0006734009341007893,-0.0005068255770630016,0.006760493559347125,-0.0004654810922737308,-0.0017629742585462155,0.00045955403466518954,-0.0006635432059546067,-0.0017084810531103147
-0.003862792038148713,-0.0014273046232662684,0.00034812251508534024,0.0010342539699432648,-0.0004011669322694709,-0.0021807072784718455,-0.0011851114352580622,0.004820076442091838,-0.0031989447241595067,-0.0007965107477084822,0.0027302429426484544,0.0023266253944257613,-0.0011090532985197007,-0.002492543809634981,-0.0037738218596070107,0.0013033179923367425,-0.0005726662259704367,-0.001679506302865505,-0.001463961060997444
0.0010501582431778705,-0.0027973036984132935,-2.756387253297757e-06,-0.0017978921732392896,0.002731703767038622,-0.001977974911485788,0.0022714648995852496,0.0010913173203832536,0.0018614530950075466,-0.00022488148840876964,-0.0022772372863468318,0.00115345135338484,-0.003280478860510328,-0.0015616271902859683,-0.002329236998995425,0.0009910534657656186,0.0023742833702768075,0.0024789220728047177,-0.0012366558140770513
-0.0016732947093939018,-0.00021775326878659332,0.002703377722659573,0.0021235221422564138,0.0014048257539034902,0.0011571249759821114,0.001845279727026884,-0.0005918063978828503,-4.5540520568923106e-05,-0.00023904152692413717,0.004755579477070705,-0.0033434013844903846,-9.306705386728487e-05,0.004099669695594136,0.0005063585305200697,-0.0008252965609668753,0.0026997030712346774,-0.0011988535272289425,-0.0003604297330462304
0.004218327993425629,-0.001649262745284219,-0.0011680242847304642,-0.00038261180323840465,-0.001120962496664053,0.001061530195794386,-0.0022173136223826223,-0.001926491828419109,-0.0015399508087326067,-0.0004361923371956963,-0.0011338151492699055,0.00021078577190591417,0.0012356439825518407,0.0022510167678068856,0.0021457375335719366,-0.004298576518602356,0.000371677453620162,-0.002061527466840425,-0.0006641779867734283
-0.0006218146505846625,-0.0016888989644887348,-0.0006287311575362859,0.0010239784896680644,-0.0007310570386971658,0.002739764947730949,-0.0003555232105484483,-0.0025028257809241073,0.001480448214928239,-0.000515396070042977,-0.0025993221075230753,0.002285799376090684,0.005000400613753495,-0.004743449653012137,-0.0012289476012201457,-0.0007488783265373996,0.0009610800554152619,0.0021048526030026924,0.0015912578915938448
-0.0007318565297514981,0.0009659558473077937,0.0016120085134729491,-0.000565838637039309,0.0010465798992996523,-0.0017139738254001913,-0.005346551680162349,-0.0031490975208885367,0.000869703784904493,0.002603964538951756,0.0040305463946603195,0.0007036427571217725,0.0008260589098203842,0.0014236440630655967,0.001328400045470078,0.0021223796634941895,-0.0002490595817252315,-0.0005969208296343373,-0.0016909605561240375
-0.0016496615373817608,-0.0011580695931415112,0.0007420550672324702,-0.0025665531070601312,0.0020925642374802,0.0007397484050624183,0.00180913898250737,0.001860481867962933,0.0048486348759502465,0.001050626282585312,-0.002269112969323069,0.000991270085486826,-9.08569425102604e-05,-0.002426275721019627,0.0005656925081587452,0.002208058306407894,0.004214698473204985,-0.00011044727643069605,-0.000578767947830491
0.00039935962480794725,0.00046647078631218564,0.0002258373886598723,0.0006006591694610892,-0.00222915132837236,0.0017881043520359189,-0.000453897128252081,0.0007052709066491204,0.002965573432948393,0.0003419522320311593,1.2710793052941161e-05,-0.0037537176809467098,0.0014828512104066605,0.005678971616050293,0.0032771222069530458,-0.001882558293004081,-0.0020330008051598746,-0.002265058752687455,0.001693367317857617
0.0002997478808905755,0.0011287554418246274,-0.0011550740478956526,-0.0010036315693454263,7.62801383820548e-05,0.0019515242883298989,-0.004605202203485499,4.3308917075598945e-05,-0.004181877228228441,-0.002181937868070988,-0.0015823193743681344,0.0019577636845145596,0.0005483120076141028,-0.0017050223036201998,-0.00012774146812934302,0.0005556762707313194,0.0001125998817726174,-0.0011482870121863427,-0.00039242031720398626
-0.0004463788940899066,7.01898864406152e-05,-0.0016249942245695394,-0.0026864701294769433,0.0003057124094135734,-0.001453293860057152,0.0023132398874382495,-0.0013897896740402871,0.002647858644885675,-0.0019160082309354724,0.00044725803335201496,0.0001271008581542812,-0.0013589548744802529,1.743339895652601e-05,-0.003085022503836253,0.0010940949917091353,3.82917645987536e-05,0.000481252430398955,0.0013092946793191965
0.0036739069546671654,0.0010321744011060235,-0.002596932926116339,-0.0002685511418124576,-0.00025194747411167524,-0.0011672680489886263,-0.0014607041698697326,0.0006361442371682171,-0.0034974097754534015,-7.063791934735495e-05,-0.00020942303300370643,-0.004112488346940949,-0.0006390561876759288,0.0030896100643734085,0.001632475868253079,0.004429842665361235,0.0010188954644803029,0.0012083745866489476,0.0009756174565360396
0.0016283023889130802,0.005156788275197974,0.0024403276625600935,0.0010663233651838668,-0.001096257300169158,0.0013505172731672172,-0.0029312122562510055,-0.003815324832211098,0.0003708857177004101,0.0012093694200547846,0.003126082731907323,0.0008728300520947604,-5.7409787037903774e-05,-0.0014141681551622979,-0.0011126891060141903,-0.0012848912885508352,0.0013269482598461946,-0.00048472488677496896,0.0020113341629310003
0.0005617057360003446,-0.002096683420751691,-0.0017978409347083433,-0.0020352776025734693,-0.0018560114295279176,0.001935599837473092,0.002192968283947574,0.003123556785486264,0.0015659745082558824,-0.0005541382234863846,-0.00213299893208172,-0.0026359760615674473,0.0010044994180684556,-0.0012905093960053377,0.0034195450793227493,-0.0006342539417591907,0.001283884140507447,-0.0012276904732513667,0.0021052758201443676
0.00021127676143720847,-0.00334911461696318,0.0014133129419467987,-0.0014633888001709516,-0.00109142047516422,-0.0038727669451699416,-0.0017008967009467684,-0.0021753862890302265,0.00033015594564597575,-0.0006428940419105316,-0.002780892233008387,0.00035188217409097604,0.0037703613108098946,-0.0012863811070230752,0.0014085107924946964,0.00034574829935789123,-0.0009800138737552585,0.0012305701262171115,-0.00046315072575442326
-0.00019317283388815994,0.0014492203685301467,-0.0007502336717963279,-0.000612240766659007,0.001143307956437451,0.0006174467005744477,0.0022392815798675733,0.0020075932078441458,-0.0016761464786443294,0.0011764437482037992,-0.0014979032417506673,-0.002400854545896109,-0.0034003607721886215,-0.002197912678165048,-0.0016989657395974874,0.0029207393268311254,-0.0006750871804827492,-0.0019520520677834136,0.0034290239103334876
-1.8200105009718123e-05,0.0016783110275178379,0.0011987745294663326,0.00014249026149108608,1.9340687494896567e-05,0.0007141023382205579,0.001341338835026625,-0.0029583651424120116,-0.0016608794365649414,-0.001967146646655178,-0.0008152180403460995,0.003872347769017804,0.0030519202148408444,0.0013613180849258435,-0.0032754731129553327,-0.002936536625723251,0.0011864325336062725,-0.0007634848243849247,0.0009475333505425079
-0.0030986105748719473,-0.0021129336316673365,-0.0024339688522545784,-0.0013784554465972585,0.0005063153234393264,-0.0038594347609239143,-0.0002808514900813442,-0.0008804970131767889,0.002366249489512748,0.0010453899050613645,-0.002276373354883938,-0.0008839809779982796,0.0013921784102325515,0.0003637935105711044,0.00019518330866203894,-0.0017045825416310762,0.0012572433970513461,-0.002469368579786659,-0.0023131959228527414
0.00250894938727412,0.0010766662253645525,-5.159918884182183e-05,-0.0026507173232991513,-0.0007829140868742824,0.0021744606505270485,-0.001838276151747874,0.0017915765525154323,-0.0001936356862281272,0.0005511999957132401,0.0010564200389904124,-0.0005873518016671329,2.5976237190812695e-06,0.0001622985819496658,0.0012624593841489037,-0.0015869884052739152,-0.0011193906573325376,0.002712575531639445,0.0005613548421297006
-0.0022113307459909466,0.00016785876598807218,0.001850963344977935,0.005907674170528043,7.045487936087748e-05,-0.0007684940814561905,0.0010707854641864294,-0.0009104553607682797,-0.0014875136847552245,-0.002443191342459416,-0.000654727743649512,-0.0018719701221247907,0.0002776339096272822,-0.0025516917604781622,-0.0019602248752239077,-0.0009411959037220322,0.0006136107303822615,-0.0021693436973364644,0.0030055771158018067
-0.0004916916480088058,0.00011195775590935736,-0.003096714612617343,-0.0017395286932482693,0.0017449359512056617,0.0018445971862584838,0.0022481860653759808,0.0029424630064872346,0.003462759297621728,0.001102849231999219,0.001944554433185815,0.0014634527566838495,0.000426508718484054,-0.002953319316977645,-0.0018657895630303386,0.003798665829504236,-0.004413196767503377,0.002317996236638552,0.0030600882932487273
-0.0023821650777581783,-0.0010913482107080918,-0.0014114483980797695,-0.0008539207778095398,0.003658221188909592,-0.0018217806889316384,-0.0010484961301036515,-0.003959231824245374,0.0016824140685587996,8.565729148761334e-05,0.001558119524452675,-0.002638227456647743,-0.0028591709082502015,-0.001652696878543379,0.002051906855202898,-0.0019078666074032918,0.0019141749662707288,0.0019341592942518713,-0.00285945167000569
-0.004123733055705828,-0.003081108827326917,0.0015575929908918332,0.0018332160838606091,-0.0038899597166900802,-0.0001536286164648231,0.00044545704283478554,0.0036982986239658304,-0.0009900047929763292,0.0007095024224359206,-0.0031187242282657256,-0.002866515383335038,-0.001943976848778865,-6.9880851259397e-06,0.0003627927063049197,0.0008064571353845201,-0.00022878369243152388,0.0025500263933904976,-0.0012880057390579325
0.0009178998568020385,0.0018465514355588887,0.0016954428768709638,0.0004385925140131667,0.005880340005080823,-0.0007557684285296066,0.0028614847959581064,-0.0022143279006635245,-0.0025933616556467593,-0.00150484400954221,-0.0013684077416515556,-0.001298208173335049,0.00014312762172220538,-0.0012235755310646783,-0.0006289705137587209,-0.0013811633306915019,-0.0027849333885803826,1.7181939023648556e-05,-5.326766641524798e-05
0.000865977875077578,0.000845895410588255,0.00030915269077365045,0.001291504904271377,-0.004013251313794952,0.003707978337115094,-0.0005245281052756783,-0.0033215681768474082,0.0002878245179696681,-0.0001557599762323066,0.0010710970156659156,-0.0007857480397045834,-0.0011302785291608644,0.0009155335142189602,0.0013163838824626726,-0.0022728382707513663,0.0023740690768587476,-3.490005059596149e-05,-0.0008442623035150231
-0.0021149831799510514,0.00033586482095767154,0.0003434731136108308,0.0012677654217545197,-0.002083134662084853,-0.004055340812417021,-0.003692830412505233,-0.004986424871685551,0.0023876678532525307,0.00414719537828519,-0.0007251469611511793,-0.0021336918049575976,-0.00014254871703294308,-0.003453369715548715,-0.0012290561153245126,-0.0013865829854185225,0.0013019673617486534,0.0009093262238878195,0.001745669650134508
0.001999601575537715,-0.0015590979510440816,-0.0012556610412822011,0.0033415743514662007,0.00027371103563199973,-0.00032503915675929977,-0.001662949482007975,-0.0008553300478428798,0.0029278669641001937,0.004857760472151439,-0.0014552348747068615,0.0024383273178369505,0.000770147170316845,0.0016975422849187618,-0.0006737019686405652,0.0034675501424247545,-0.0013348867612932764,0.00017284333983177253,0.0017773084597412874
-0.0008876872428565429,-0.00443044044848162,-0.0018646662095004288,0.000564480805424611,0.005499512078138582,-0.0031361035476017286,0.00029077087547883774,-0.0020625873534859634,-0.0005827672260513499,0.0020780779081010477,0.001837898887709016,0.0009741917563110014,-0.0026265109729374436,0.0006143907535298526,-0.001890554500178454,-0.00012171696580803329,0.00499678282159211,0.0013268839582118881,9.505142207233426e-05
0.002372034495773835,-0.0009822961847801642,0.002321971292741421,0.0022426164018792393,-0.0012714947026187828,0.0025234775415574396,9.179378118904613e-05,0.0016009385831041553,-0.002914266010387045,0.0006788559147782803,0.0005650782185573753,-0.0019875422240194104,0.0012973856289401795,-0.0001455734899635018,0.0043736113351408295,-0.0008355658307666061,-0.001516512650210665,-0.00024256745525970264,0.0019603152589855
0.00023402907103095785,0.001041023187191028,0.0018565331947128947,-0.002081136570700519,0.0016807819951209601,-0.0007765723088618045,1.0398579231449049e-05,8.245256045089033e-05,0.0011017577442510463,-0.003982077529424021,-0.0037929586538562408,0.0020717165324913495,0.0014520573288794312,0.000365972221642262,-0.0021697512501935717,-0.0009359878759745924,0.0007128140755419185,0.0018878421996802936,-0.0007704233244359781
0.0008900125223298191,-0.0030793966603772168,0.0010439171332840868,0.0011999861427493877,0.0016008936145882286,0.0006999578124631288,0.0014661207241346574,-0.003439998082731583,0.00035533534771185386,0.00019625239344149803,-0.0004812995019603037,-0.0024715982538092247,0.0017619134261602641,-2.7922869882307714e-05,0.00013296099883105096,-0.0008227897718040871,-0.00018005473069962987,-0.0002223983630697727,0.0004915559303113493
-0.0015392478404997966,0.0001252482225334845,0.0007629663950088039,0.0024851314694723783,-0.0010902765004097423,-0.0007700345378326993,0.0004871506910722691,-0.0013115868333721254,-0.0015566668579812674,-0.0026604567070503166,-0.0024451736017847845,-0.0006702393720604483,0.0009391167436655841,0.0022244417354199664,-0.003851370530125425,0.0029273426332520032,0.0014041075776527762,-0.001735792918986772,0.00010090804197774874
-0.0019123921444297066,-0.004574349861238746,-0.002212550792039605,-0.0033512831824275427,0.0031766587839851183,0.0014330875013327039,-0.0025564674376680986,0.0013835932385003224,0.00036672150245279885,-4.799039627322324e-05,0.0031675245561489838,0.0002468475104726184,0.0004394682287554607,0.0008553682211884737,-0.0015898580120093985,0.0004884616876114116,0.0006599540502035799,-0.00036711159799016643,0.0005374513891344039
0.00098003231446745,-0.0012487933785543695,0.0020284170793107223,0.001393017466809728,-0.0009550507166740226,-0.00012751310015272536,0.0021399117912078475,0.0017909427039877882,-0.002008364279384191,-0.0003341619516479394,0.000861981218343256,0.0017067339059563234,0.0036353590547756366,0.0017290994426348608,-0.0017881256096985729,-0.0024589534126656866,-0.001189582629564968,-0.0018133971231145357,0.00012239848113493405
0.0003523588334331488,0.0008698949364584571,-0.0004951000681272985,0.0007317900166694881,0.003001241382306665,-0.00029496543966673933,9.655313593802098e-05,-0.0036780835664911083,0.0012156633323542217,0.00011962528016888116,-0.0024783829145210738,-0.0007174083751931497,-0.0004804553360754306,-0.002739995497610314,0.0023059283238547838,-0.0013177819260094014,-0.0007198771588944264,-0.003048449190552272,0.005167465617592815
-7.143001289797416e-05,-0.002212137226804133,-0.0022965148182153843,0.0003077891602781958,0.00027672816689378396,-0.0013716410048894008,0.000356702988344708,-0.00011685856763884974,0.0019795509301373305,0.00018720028430202671,-0.0015505929150340626,-0.0040015876900154086,-0.0007547756752167434,0.0032352252318752542,0.0027537527120634884,-0.0035443363104137697,0.0005172659133070203,0.0015831215799035965,0.0011093945240526373
-6.693136261277703e-05,-0.005207784634009057,0.0031959700781254013,0.0026137659451661447,0.0016343587218619253,0.005693565692439425,0.0001531856546892284,-0.0007619936948743369,5.4637793039931945e-06,0.0036742594793186785,0.0013775825975078661,-9.574949763961342e-05,0.0005513108425911379,8.859103320531426e-05,-0.0018587516556829973,-0.0009115364044750623,0.0002781481986359224,0.002782064128385044,0.003969976057862537
0.0022025827793048197,-0.0010973995624710955,0.0037097330295512683,-0.0024139996787949963,0.003844260147444695,-0.0019072569749715258,-0.000258415629693455,5.144154288761677e-05,-0.0011479298938419202,-0.0009555212384007708,-0.0006826883099053316,-0.0017242839979023214,-0.0017296852970032643,0.00029562393015549593,-0.003140459719179002,-0.0002441731644848926,0.0004929732831821437,-0.003658024329459204,-0.0004048469904441054
0.0021934380101751253,-0.005334351295425236,0.002186407568149516,-0.0007087838787197166,0.00324627756111351,0.0014833149470662378,0.003390541941208216,-0.004666196388177759,0.0019546809094953387,0.0007330379811146214,-7.641757268686004e-05,-0.0012121577701189653,-0.0019018884753300813,0.0007962259509580318,-0.00016635661009391968,-0.0024383159396176345,0.0010066555445730843,-0.001924414313928749,0.0013322268279249206
0.0011788943733021303,0.004289407302447752,-0.005000738971318229,-0.00013167644532154337,0.0025255282190505225,-0.00541738691217895,-0.0008244624843811337,-0.0010577050038559851,-0.0002381601665324888,-0.0007753776701745878,-0.0012924422634785768,-0.0016022774087313854,0.0034908705058970964,0.00047960267410396414,0.0007930140712073336,3.3050987926272985e-05,-0.0022666189121366173,-0.0009008578744655158,-0.0022697336055756186
-0.001699759731169679,0.002325372899189165,-0.002418284812008714,-0.0030798261487996986,-0.005086054113060018,-0.0002145625574880293,-0.0016761335271509934,0.00243657963206507,0.003907175378619622,0.0016012240101918335,-0.00027973511583749533,-0.00020718426523464353,-0.0017310143157013003,0.002299819911709043,-0.000886107494904791,0.0022449419213290147,0.0015331647289280432,-0.0019579863168534455,-0.0019080303595584891
-0.0018969390108059614,0.0005778337473152122,0.0024648602951042047,-0.000747307504422509,0.0008567543382783488,-0.0019228317861705688,-0.0013623204599171308,0.0019505633963292027,-0.0007599297150056501,-0.0007045821509777121,0.0004209656000565685,0.0025676533291919745,0.001237150370356477,-0.00036878052559998083,0.001490478932714559,0.0014560460091561998,0.0008673415279912511,-0.002735318554919326,-0.0029190186142745516
-0.0009038942744349651,-0.002812647157507061,0.002140337019748982,-0.0001136425719694575,0.0012988529919284808,-0.0015519402229137369,-0.0038276689699185385,0.0016066947089600503,-0.0005686463286891887,0.0015753941078612249,-0.0015396388513151268,-0.002630712293120478,0.0017307686954929006,0.0007368334271603921,-0.0011790389170854608,0.0008538553582270897,-0.0006399645394701394,-0.0013771535550828118,-0.00035687340998304557
-0.0012792170768321977,-0.000927773561724617,0.0008080797908598654,0.0006402824241201358,-0.0016724390275847337,-0.001382450605984936,-0.001496321021706436,0.003928839386142997,0.00393737725651628,0.002216178325722531,-0.0009727951545556181,0.0013995449886726795,3.290827730219772e-05,0.0018884764378686353,0.0055705200940918105,0.0010915118974958275,0.0007485618994606643,0.0021670166125236437,0.00015884306107698888
-0.0011242965685148622,0.0015568925325953572,0.0009538561414406312,0.00016122540355970085,7.178757986739863e-05,0.001674121804843055,-0.0009970558914430437,-0.00031131861759095824,-0.0001301570795386296,0.0012179612027142335,0.0011028679040705617,0.002216598755320194,0.004770577164706623,-0.0024373353567321244,0.0017345469504111543,-0.0009874491625077985,0.00139251688659946,-0.002390092467412061,0.0008099036678004801
-0.000638708603081508,0.0005737999885741457,-0.001530608758898024,0.0021067179721190894,-0.003004142190898378,0.0020399867372892394,0.0011173963011268612,0.00017351835815345557,0.0011789381470399614,-0.0014169171414995998,-0.0008829909504341816,0.0042348829638838925,0.0023492415353399427,-0.0021544650890921915,0.0028676315737918997,0.0009941815650025474,0.002413547882616595,0.003303750697841204,-1.2706241194828448e-05
-0.0002372683958060438,0.0015583364575710657,-0.0009669152285434458,0.0006685443412330521,0.0026129961033184153,-0.0018253234462011381,0.00012675950930957723,0.0004571123029499703,-0.0019568137652344855,0.00043962205014561544,-0.001649537293781395,2.9346808781666537e-06,-0.0009290192304842008,-0.0011737976579337108,-0.0005780784360793949,-0.002094082422839364,-0.00041780220491003593,-0.0024761190344370966,0.0027261694292616697
-1.2659818801789693e-05,0.00032181647387452257,-0.00018924698765861067,0.0007050470254577483,-0.0009314511415849321,3.451121830596687e-06,-0.002736202955870143,-0.00037281796433580425,0.000756727021303851,0.002916033933885692,0.0002996019845857014,0.0006750375321430694,0.0018732740652867394,0.0006109202472874239,0.0014225544257416517,0.0012302970742087223,0.0032059598767941915,0.0021094942983668364,0.00187388249786541
0.001799287497528302,-0.0008632529044850448,-0.002204694876356119,0.002980671146575742,-0.0033501806402037853,-0.0019171364215072202,0.0007568571972393076,0.0008510423460785553,-0.0009870944532007781,0.0003703580200060247,-0.001507253230152927,0.0008068188316292337,-0.0014875999315119466,0.00026878407549067295,-0.0004815257879179747,-0.0015101615830534038,0.0011088935689802543,-0.0010819268503662943,0.0008998865272538911
0.0015921429727509418,-0.000598789545342217,0.002687055962299578,0.0018967197706467572,-0.000339706547392745,0.0031428763229257423,0.0020405541693936918,-0.001038292675169506,0.00013508367141677855,-0.0035616819456324024,0.0037143187987816488,0.0007490169065651834,0.0004880716805234616,0.0021035840363512436,0.0005953618148759718,0.0028115965143590015,0.0011513978992318357,0.0024574911846998006,0.0016286196006489973
0.0024651674285420177,-0.0011423858501241847,0.0028353922357868475,0.00041009658568030974,0.000979162223439324,-0.004303161277651986,-0.0007253111676048428,0.0005651588301992964,0.0016199632367915435,-0.002118979160349053,0.0015275545429140613,-0.0012146261525987872,-0.0013614794088357834,6.196065493494908e-05,0.0027871500850106166,0.0013100261740863913,-0.0002823636320913697,-0.0019996098130001566,-0.0011861561247584096
-5.35112640879056e-05,-0.00035676571590882424,-0.004953399582254125,-0.003855396481657895,-0.00018533524950718267,0.004949984844626786,-0.0007672177985014165,0.0003576067871506006,-7.477996645431397e-05,0.00100341884288865,-0.002166012741128454,0.0018646375658324201,0.0018781446277942523,-0.00024605249820305777,0.00022180543160467826,-0.0029712843196395204,0.00019763168214602443,-0.0018202428353666484,0.00010827621349289187
0.00047692166587031683,-0.0012955442150853268,0.0016595961105919065,-0.00027449445022788857,0.0005860326016114683,-0.005001607369823902,-0.001135866060146478,0.0011787444165972248,0.0033601815483421094,-8.492080084176639e-05,0.0011791403405825086,0.0019525136601838539,3.834177184214835e-05,0.002669948827215719,0.0004393955877304617,-0.0005179581757627452,-0.002767619246937353,-0.0027283533267241536,-0.003509625969068479
-0.0012355866348745432,-0.0009112782461031166,0.0005646817747639517,0.002084198147888127,-0.0016265052953836133,0.0005738043304063511,-0.0013712804910943506,0.00018832030101158717,-0.0010058235555701204,-0.0013304651531310101,-0.0010556214323697106,-0.0007984727543434838,-0.0018263927881835972,-0.0008734122667202697,-0.000276919154350822,-0.0005298242003190432,0.0009143263850607706,0.0010510475702718309,-0.000234551078352637
0.00273013236244576,-0.0030231063319709093,-0.0015540933602686442,0.0012965958089213815,0.00048472968547490447,-0.00031287491773326686,-0.0026022333494558976,0.00038640729257233806,0.002684059085347808,-0.0015893096384182082,-0.0003003400178681031,0.00044491478351008844,-0.0003743416009565716,0.0008618528168303972,0.001748957693038021,0.0005994829525002741,0.002941625092421845,0.0017191643861782684,-0.00013678621355428698
-0.003926010934790935,0.0010691370297664766,-0.00015412721330159605,0.0006338327544949444,0.0011169008989094513,0.0008982426870134295,-0.0016084443960624458,0.00035559365563192963,-0.002127018574574138,-0.00039372087500020176,0.0017482263320955666,-0.0006396282918813238,-0.0031282383303317587,-4.92938892178877e-05,-0.0007214985898879341,-0.0008531585576500687,0.00021676231309503266,-0.000638073924272887,-0.0031887807833439717
0.00023279618963578942,-0.0014381825968379659,-0.0022530926741193107,0.002509644703394755,0.003233173831145467,0.0016265296052120346,0.0006792413919849421,0.0010296439026609714,-0.0010473513056915348,-0.0013813168315341027,-0.001159704859751856,0.0006607353074723587,0.0013483278243363059,-0.00021494557171195425,-0.00012311075817590783,-6.009909809239928e-05,-0.0011302538253213587,-0.0035995265439493535,0.000500417262520162
0.0007263789027219134,0.00016068203710657749,0.00040137615150415373,-0.0018420156269370988,-0.004004533963026784,0.003394185515077093,-0.00040557096764740785,0.0004357998000307601,-0.0003443394162652156,0.0022223621945619454,0.0025622445267926034,-0.0026542250355901824,0.0007417465464373498,0.0002853061820707002,-0.0018952707964477497,-0.0023888836532455424,0.001322537528719091,0.003820664247014646,0.0003147350651308057
0.002416330670179573,0.0005893210968949441,-0.0007729944588922025,0.0030143684640322283,0.0009373701196244035,0.00015945489697393402,-0.00206466716641771,2.0463517045107902e-06,-1.917606621156255e-07,-0.0025386140919444852,0.001545129836644493,0.0002506923519369177,-0.0012544466565065657,-0.0007530045871046512,-0.003321409973570318,-0.0036912711124163305,0.0015832055998224622,-0.0002572467823069983,-0.0013223243558691086
0.001967277657729075,-0.003813358783255092,-4.15106564298693e-05,-0.0003712418914576735,2.8894099604092316e-05,-0.00017647505355435257,0.0002806603638215008,-0.001705178343985463,0.0023449807153878613,0.0001890273329946888,0.001829605622360524,-0.000862199583477288,-0.0033943321951986766,-0.0022064325840739332,-0.0004402205979081068,-9.152693910968027e-05,-0.000941827140088254,0.0027135699105022043,1.9707106820099844e-05
3.827080991168e-05,0.0016499444646144968,-0.000261063110734647,-0.0008335407283347573,-0.0015508350848946588,-0.0011214396554293314,-0.0006365546303454004,-0.004966498288200535,-0.0013730993012713564,-0.001050159267002127,0.004492262657194852,0.002690888929892052,0.0014451794251393144,0.0017487295148937852,-0.0032003316190128794,-0.0015303419443308413,-0.0015015378969315677,0.0024619314058551677,-0.0005546052496976396
-0.00043804066123463703,-0.002701274946590645,0.0015723584764793512,-0.003125677511338762,0.00046856579644248813,0.004666536741761359,0.0016398425441841859,-0.00226424974037586,-0.00015006358961704302,0.002074747610122655,-0.0009194226777847918,0.0011374431448208553,0.0005953130502860866,0.0019199251121421463,-0.0007224072699973612,-0.0010996140217510318,-0.000997587569721491,0.0016286742726421654,-0.0012511121053945
-0.003679492178661901,-0.0007020880935548923,-0.004404004109752218,-3.8647982883173076e-05,0.001726183642492763,-0.005298337054635883,-0.0017545715095303531,0.0019429166080101442,0.002002740443267054,0.0021847756585646762,-0.0015053315730377418,-0.002191800825313294,-0.00046407480148285223,0.0017849431039128302,0.0024768636789404786,0.00045696166051212116,-0.0011632557728800997,0.00025638696150030504,-0.0015516130851213669
-0.002677464547907214,0.0004660003520517096,0.0001540367504629801,-0.000727767256583554,0.0008667436099096016,0.000737043439459117,0.0006044773349658427,-0.0011751929702049969,0.0002636533843836709,0.0016259702691790888,-0.0036881498786920344,-0.0011428956236270165,0.0005607996651348921,0.006026958948309821,0.003912851214745951,0.0038621852828840675,-0.0022182828515677554,-0.002624994236398267,0.001335250494683196
0.0035022149493729783,0.0013119860403595545,-0.0010502846233739287,0.0035602070861554904,4.190051337701922e-05,0.0012750830474679911,-0.0013700520599251027,-5.6839684005512294e-05,-0.002361047193072495,0.0025760532246754957,0.0021936907775665505,-3.309856789420352e-05,0.0009504734496773902,-0.0026994815345500155,-0.0012702063356576023,0.005124932566448182,0.0024014433842229634,6.03524783403212e-05,-0.0010433034696527487
0.002756098841119074,-0.0006667415177421149,0.000784781903690862,-0.001927349839833241,0.001251292609790501,0.0009821060702849915,-0.0020572995237819825,-0.001780597933627342,0.0011877583441635862,0.0017844293226663439,0.002063277261684765,0.004241477642350563,0.0023529646446118755,-0.0018633103150450818,-0.004649018242358461,-0.0016183703950087805,0.0008997459387995151,-0.002778862376023724,0.001439838117744125
0.0010238855669269951,-0.0005607700002562414,0.00017864464963122757,-0.00038845858416691124,0.00034454225709507703,0.0018479614564665123,0.0031931051734925137,-0.0012363659517293445,-0.0013008007910095124,-0.002276825519797853,-0.0012328186828520647,-0.001022975826320265,0.00189665051210616,-0.003747160916294466,0.00110193270676174,0.0010217245355650464,-0.0012100839227130885,0.00026165764214155975,-0.0008220162681062627
0.0008492134629482087,-0.002916781604625798,-0.002048088857268224,-0.003450534648283253,0.0008706554680560696,0.0001221853036541989,-0.0015039380418865054,-0.003048633535112323,6.939590559255838e-05,0.0002929087535140256,-0.00022981422593475534,-0.0015326716864856801,0.0005130588683372934,-0.0012084550513445352,0.002076465274856,-0.003081304989197029,0.0009187035920877514,-0.002871842107214598,0.0029646803865109946
-0.0003707680918055771,-1.4545976209535472e-06,-0.003279052498119873,0.002863279676809159,0.0005556521196378262,-0.002256166919830481,-0.0022609709648023207,-0.0005365843702903146,-0.0014688111456866175,-0.0011009607361283087,0.0025387948071908767,-0.000856460271667792,0.00034070473718303125,0.001790210953762044,-0.0009161827748940381,-0.001774216883624125,0.002539152804093301,0.0014972302589684927,0.002432578545331556
-0.0008370126302449001,0.003997859686524578,-0.0006944490299154889,0.0015015907252447494,-6.164051137522327e-05,-0.0005416271336563636,0.0014040325418287038,4.43092585904194e-05,0.0038562362564474677,-0.0007568988438198396,0.00027571995233152175,-0.0005629805880227221,-0.004119237638003995,-0.0009620166844994871,-0.0007683223649725865,0.0012979156355986067,-0.0011620175235203813,-0.0033058222518904247,0.003252142249254044
-0.004441519286561066,0.0002037898438715981,-0.0010956804067415926,0.0004489590090329504,0.0001398990502153682,2.1452208202853135e-05,-0.0020128976893081262,0.00048776182524828645,0.0005181271095870087,0.0015542959391536702,0.0005562011284062429,-0.0023409937777664857,0.0008179836046988213,0.0013559342215625704,0.0027719779180523686,0.0006381545152662805,0.000746251707781968,-0.002194048630381972,0.00015615204515013074
0.0022470160581357286,0.002801063640700846,-0.003139848956775417,-0.0008915304678461987,-0.0005763596664406962,0.0007366383745099952,0.0008795456996744624,0.0016757784582661452,0.0024942763660052054,-0.004638397357057791,0.0027905523717321333,0.001514093672537315,0.0017039554293532947,-0.003517498514499002,-0.0011141031766252684,-0.001220457470059913,0.0004549057417240308,0.0011797309455546493,0.0005337145884749215
-0.0034612217539048604,0.0004625948582418921,0.002593057597920698,0.002763644256343368,0.000387006579963538,-0.00024281785008382407,-0.0010207830146407445,0.003658695963797974,0.0017769382458631198,-0.0033437436339002996,0.0002656023455514369,-0.0021496642900512143,-0.002397135120672694,0.0017430047808898136,0.0020208343763115054,0.00020489689584992325,0.0037552707385418074,0.0018131649223159046,-0.0018703214152907194
0.000722259536154718,-0.0003379538765747211,0.0017182941603914692,0.0016418558919453036,0.001473852894876246,-5.18802589103893e-06,0.0021241238297368577,-0.002160402909436005,-0.00037207417257521775,0.00015889510394941853,0.0033874263366524267,-0.0023053373900677144,-0.0032950216413967425,-0.0006186263329369073,0.0014073208359997968,0.002617907113258801,-0.004876450173247432,-0.0010634959918720999,-0.0016138417978385556
0.0051083627840283075,0.0007544341672831959,-0.002935281218586603,0.00014675548293550738,0.0010212119847920263,0.0024125379787176375,-0.0025869034736768974,0.0028869723767950884,-0.00020918042958063016,-0.0032777863115199483,0.0016353632667520295,0.0011177188838579594,-0.0005653352116408418,0.0012380868180139812,0.0010081858895690141,-0.0013611548597098715,-0.0019569115097351508,-0.0014912378004621099,-0.0027466219011148844
-0.0009406146283180658,-0.002461332125052346,0.0019795435335120543,-0.00015209056083501955,-6.399585756409103e-05,-0.0006012119706155644,0.002466942251790602,-5.1866126051883566e-05,0.0020447186922861447,0.0018954338629830374,-0.001094612510598335,-0.0004299607608955969,0.002494042527993208,0.0010874837443860333,0.0015351433400715808,-0.0015543355645663453,-0.0014563510890169512,-0.0017084192752645356,0.0016895481618729846
-0.0008109869071956716,0.002309069445229551,-0.0007676703671648401,-0.001564836093438628,-0.0012038519966633208,0.0036466435034370626,9.195394150257799e-05,0.0008432685822581814,-0.00015509026451199058,-0.00031188298395149285,0.0033472971760814194,-0.0006081097289972426,-0.0015153657079000251,0.0007129499927848519,0.0028422014427697912,-0.0014327063745317274,-0.0024084804671523174,-0.0008253051308115295,0.0009009945717039827
-5.3463458289260544e-05,0.0016517070957086243,-0.003031314712752959,0.0001725537876871162,0.0024241783992548804,0.0005898856373680886,-0.002562584565648939,0.0014496688092094868,-0.0014691629196807293,0.00369143162751095,-0.0022351688141288785,0.003226330372581203,-0.00022833324180938385,0.0008752716780809274,0.0008820717204163292,0.0024583623671690148,-0.0018716857476524745,0.0034015590048267243,0.0018549819896616848
-0.00284436767238214,-0.004948287509194861,-0.0008412680061954396,-0.0022134939756663303,-0.0009107926347102637,0.003595091688444096,-0.0010892140441899417,0.000833919975586978,-0.0024593937831862743,0.0022216174802524966,-5.47036809887642e-05,-0.0028499537159543094,-0.004623884147712328,-0.0013995471986136372,0.00175902419269233,0.002670996627765343,0.0006747728097548114,-0.0018370525217119723,-0.0018334081344452918
0.002387344326275085,-0.0012166602001899213,0.0028032685988205086,0.0004302894913903507,-0.0013308799430747302,-0.0007136924485072709,0.0009425440901031157,0.003880801184219728,0.0025749246014665638,0.0016304877862494296,-0.0008974367598680954,0.002306046542581405,-0.0009603490293673616,0.0018083715911243617,-0.0018570706305665826,0.000303019957630578,-0.000736458522986507,-0.00293024537649555,0.0001428440151090489
-0.000507686173485286,-0.0031351903681866196,0.0044416589359785276,-0.002148881903905577,-0.00331194073269096,0.00014007429413092053,-0.002444536157097482,-0.0024447215527502878,-0.0017260548687426144,0.0016353483480178834,0.0016389561701484843,0.0010124942051175933,0.001608090621468503,0.00018600215939693705,-0.0014494125759432132,0.0022343777644435823,0.002304292476661806,-0.00038260820959729123,-0.001545253032781169
0.0001657377548670208,-0.0007478163070996194,0.0034244873760272475,0.002241512957942718,-0.002943492986139457,0.0032590496136375305,0.00021287952893766664,-0.0035511605288054246,-0.00114033145367459,0.0024650960096267256,-0.005195350887048673,-0.0014009338841536741,-0.0021848644736525793,0.002308113597886488,-0.0014091990489496328,0.0011643255708302042,-0.003827866255081025,0.004931779524848861,0.004364659580486865
-0.0016175287476277455,-0.00062780289501653,-0.0015438108677360402,-0.0008670042237534447,-0.0007730582848786116,0.0005255184958419863,-0.0034945347266746693,0.0013105258536057391,0.000795563134313758,-0.0019423358382957964,-0.000669706155918369,0.0024325930583485346,0.0012691626752399847,0.007522488408205178,4.9845508157682594e-05,0.0020334752142965517,-0.005334438094655863,0.0015913507105654204,0.000576626123058759
-0.0016465937132388365,-8.700622453621837e-06,-0.0005597015054269,0.001490541416018576,-0.003893807488702429,0.0014109927100594284,0.0005154783628731557,-0.003958086846658328,0.0014477533559206844,-0.002366930081214306,0.0020911656300804677,0.0010754269932570536,-0.004360346919345375,-1.128734773721745e-05,-0.0011797699917863703,0.0014086643402149268,0.003972107070358578,0.00618100093932255,-0.0007908417090520531
0.0031167053220867726,0.001526768771696918,-0.002418684367741766,-0.0013360609316093732,-5.568129901654564e-05,-0.0005062226891868433,0.00046084347977191974,-0.0015196050287315007,0.00012698237962576925,-0.0007029913189516586,0.00021199299908765762,-0.0002782264592493605,0.0016019620546627157,0.0010626909420605886,-0.0026542422509697903,0.0010513745133404657,-6.658455346363728e-05,-0.001160671214128862,-0.0012921273729895886
0.0005362845871355985,0.003684045213259983,-0.0002826148557200904,-0.0031476759304895963,0.002124563733538267,0.0003584277441715609,0.0008953072111362972,9.92162091363514e-05,-0.0031350932847232288,-0.0027214776498949668,0.0010273079993695113,-0.00243585262157246,0.00031753587299345143,0.0019726813652179618,0.002691371825230152,-3.598239624599393e-05,-0.0021783296901257544,-0.00021291541264408423,-0.0010317903171481392
0.0007939633016503859,-0.001303648530749646,0.0024594197301675185,0.0008760422108989542,0.0022949487997969164,0.0004715672404327637,0.0015044300996196588,0.0017303542486039665,0.0029517179367817043,-0.0016434173649532069,0.0001699097666703635,-0.0012167420734227733,0.00029721092027317793,-0.0006196901547365492,0.001071292426953405,0.000756541968114971,-0.002460152198141544,0.001268178001755419,-0.0008745078255090469
-0.0025357153109687985,-0.0011425444050746263,0.0001370851453601729,-0.0014967962998917287,0.0020517860151243786,-0.0006278125440371232,0.0015555920332778357,-0.003251846935718263,-0.0009397543439273663,-0.0018497158901597014,-0.00015855469162335555,-0.0008151498111607574,0.001796209919604281,0.0008196881060355808,-0.0017965009964035549,-0.0007401640501790566,0.0009183562970753326,-0.0014961384608978344,-0.0022855695669415786
0.0007694508050803771,7.70816875476153e-05,0.001058131035815072,0.0019523817233564856,0.0015581307884649338,0.0008406576712651016,0.0012076069754371503,0.0019247960599362906,0.0033128587616963203,-0.002364076385662335,0.0012860682676250563,0.0012097630136242922,0.0009528350298833633,0.0023631999837312153,0.001102133910014088,0.0016402428709135126,0.0008953879221555832,0.003226758474265724,-0.0025351504511168443
0.0019157337557264822,0.0029996511245138917,-5.4937321929707785e-05,-0.0029041703765500713,0.0032211713543433256,0.0023390344459447887,0.0025374972971250382,0.002391850089235667,0.000825521391077953,0.0013771395205080517,0.0011338216255765753,-0.0006939531854600559,0.0015849094074352947,0.0028323560598560184,-0.0020976284385686426,0.0010573396795468648,-0.0031735603489771356,0.0017364358896106477,-0.0019092046358234031
0.0018527306054761338,-9.075819463772941e-05,-0.0020971910917881743,-0.0043890688020318275,0.0018409881450889962,0.00040688876571889335,-0.00011392420705625643,-0.0029657288695202353,0.0018633168622226434,0.0018997286766954545,0.0008333805549689894,-0.001471077641670055,0.0005012651142810153,-0.0030789747525800386,0.0033241300670685653,-0.0003758744699797732,0.002316169515715704,-0.0005391814996754962,0.0028643526740169296
-0.005358468942917877,-0.0021927729351291342,0.00030122392428471624,-0.000837419715019656,0.001152177352242394,4.773597011328116e-05,0.0005782763213866246,0.000496336153819432,0.0015228681741453946,0.00031254220519567395,0.001545934539320672,0.00010044638163430752,0.0001263945198041363,0.0010161804177500654,0.0003259147307574057,-0.002868921037986975,0.0010985917012699443,0.0021471879867072173,-0.00010633459286291753
-0.00033827419454997043,0.0021086787490423625,-0.0009766299259141398,0.0020876414967831284,-0.0006589276247120135,0.0005479633630440244,-6.708925443096666e-05,0.000876629819626163,-0.0023890368982922325,-0.001565198366823992,0.0025341822860067056,-0.002793845892739982,0.0005319065581259596,0.0015546012300986125,-0.0006163555397596029,-0.0013769111235947796,0.003045240553253847,-0.0016458258158248142,0.0012716949298512718
-0.0007360780739583597,-0.0014576333082635077,0.0012702218313916784,-0.0007127943627804937,-0.00040673054930736804,-0.004468929831200883,0.002223029346546331,-0.00019867936204036793,0.0007131681108310051,0.0026638412369444303,-0.0006965567699163558,-0.0009062683216169232,0.001010451772906562,0.0018202851800419566,0.0016274697279175098,-0.0003653390775234812,0.0012962796381868777,0.00048171606023125405,0.0008950807349247411
-0.001505680110862337,-0.0028221426610317278,-0.0017383339413627515,-0.0005420780899591178,-0.0015692860020717547,0.0007414703127966491,0.00015108528916802126,0.0011280064186176763,-0.005309829472829437,-0.0017614029607369913,-0.002682094896853701,-0.0008545782327245196,0.0016416472962698235,0.0012456663819179201,0.002461486331810052,-0.003825781477206594,-0.004250513258874132,-0.001487446047441828,0.0007414040030359266
