-0.000565689207884906,-0.0006188216572083303,-0.001236843666827668,0.00339147669062289,-0.0012738127618399473,8.526270791598058e-05,-0.000679972608266457,-8.852181431512658e-05,-0.0005234611357500563,0.001385471108908102,0.0029850924694678617,0.0011786419733235379,-0.0027861940127401233,0.0004376150226043372,-0.00036400399650015323,-0.0020366280076586727,0.0023432681242749804,-0.0021205936003504807,0.0038420832444283695
-0.0005587542186408917,-0.003394372707060129,0.002003574437260934,-0.0032172319865495284,0.001170486078012601,0.0036987148510549623,0.0009305927781343528,0.003034217072468281,0.0028304578825127428,0.0004984915503300349,0.0033523614900009212,0.0004681249622405281,-0.0012953257659156741,-0.0023222628938014593,0.00025921005780131116,-0.004130281620969851,-0.0017304561637212544,0.0017006914122699769,-0.001007918691521278
-0.001148913442954199,0.0006044941255062392,-0.0032570822428922446,-0.0010707833536682493,0.0008788835998560894,-0.003399382759185278,0.0021222003119777235,-0.00203710973193227,0.0011942033420598783,0.0010304432084779459,0.0008826786263630552,0.0005208145577820647,0.0018774700070495196,0.002409711839532573,-0.00087813840542243,-0.002267651480389027,0.0022552126213741266,0.00036005599219943136,0.002619073745137047
-0.0035142732699808667,-0.00010196577504992047,0.000438121777124692,0.0013485065273375705,-0.001218312033451459,0.00498985590028688,-0.0008808600681637504,0.0016932478587964918,-0.0035851627434112607,0.0004691844550899417,0.0021176658035580924,0.00017297427271119903,-0.0018086634065645672,0.001588388927751015,0.002066226229027425,-0.0011655768018308302,-0.0013124471085530724,0.001260560037632638,0.0016857214468681838
-0.0017841692022447736,-0.00027476154702633807,-0.0005915612806163553,0.00011328665784680688,0.00014204472629983055,1.3596810684397615e-06,0.004860973491737999,-0.0017202841028689238,0.0021179300787509694,-0.001498824775259604,0.003303822367881531,-0.006530430027226424,-0.0017082306874320818,-0.0020248492687329482,0.0008941200793309385,-0.00025252490509595826,-7.437769701844873e-05,0.0014141283324927581,0.002669709754246582
0.0038044117070349754,0.0009423849161786596,-0.001616163742743667,0.0009282436528630761,9.869123060378716e-05,0.0004402790022622483,0.0030191620203408993,-0.0009565092830102919,0.0017446033808694325,-0.0001889885820806244,0.001228522762724806,0.0027569687751665046,0.001219101038556135,-0.0007604089848376442,-0.0005926380431299105,0.003080034437675386,-0.0010967981317143128,-0.0011100845273095252,0.0037709274710536946
0.0005952702789720875,9.885155688454655e-05,0.0004690211649100881,-0.0040709624798576675,-0.0016496979411960214,3.2886544202513887e-05,0.0009507970509890766,-0.0025580465231670184,0.0008759686107087347,-0.0021271611636128735,0.0013163178363237349,-0.001387581715722187,0.0004025917569005937,0.0005050844114209307,3.3789296543098546e-05,0.0034724645498813178,0.0010200592395416853,0.001247409931996638,-0.0014473436885155916
0.0035978145215690717,0.001403678672916452,-0.0013285379003150695,0.0014100895896183368,-0.0016494888085299315,-0.0008949063829626859,0.002833260081361923,-0.00034998508141792105,-0.001740863811249097,-0.00016679642241158884,-0.0005915504691861135,-0.0017020644303262754,0.003418726596679202,-0.001312992998591443,-0.0013058928754519092,0.0017840527505212777,-0.0015145102173560112,-0.0001693949730218938,-0.00032923356024992757
-2.6274641112995326e-05,-0.00019879944766763242,0.0014511827618095797,0.0015152591619447904,-0.0006400020510630664,0.00040131565343233544,0.00016033334556562313,5.918717762365352e-05,0.0004922371939660153,-0.0018346643503485095,0.0027324251676949366,-0.0005632972085879864,0.00146049738480471,-0.0026284620422926852,0.00030296640100417675,0.0011703761312215207,0.0008775386184840979,0.000151225290778637,0.000459810248349568
-0.0006385529347207182,-0.00403656117846217,-0.0028378378897657283,-0.0010406267059257686,4.514285566050028e-05,0.0008642107716361441,0.00022176813543283816,-0.002992649361258258,-0.0019874990247116526,0.0020138306534798448,-0.00046121564107028194,-0.00022957362152452911,0.00052089301268577,0.0017291552983859182,0.001501228781999501,0.002412029451683329,0.0017474419597108609,0.0007303681328195524,-0.005501638303612629
0.0005617099433068521,0.0015699759095586588,-0.00241687495819092,-0.0001385604031731225,-0.001023177236473071,0.0017730235146150048,-0.0011205776757967885,-0.0010695819009931104,-0.0016345971194327857,-0.0005172678104743431,0.00010010965449551985,0.0004524319150038335,0.0002081913132050059,-0.001337370891505488,-0.004325743715891373,0.00025895065820521107,0.0002643341105720333,-0.001865593010879729,4.413621794398951e-05
0.00297101040743046,0.0030685936656596473,-0.0009610426420593586,0.001152967425162202,-0.0028639809646285844,-0.0024487107300494165,-0.0006559697707236797,-0.004076529856878018,0.0004419720667524759,-0.0020622621691200093,0.0016811537346750835,0.00022183998517381746,0.0005264517330915704,0.0004781302463361309,-0.0003831133927546579,0.0013505724055553612,0.0008067581124737674,0.0015229152884565645,0.0029887931523181854
0.00022162071520631478,0.002872140706666885,0.00024548591651879286,0.00414295188029587,-0.002329670673606207,-0.00013277886978324153,0.0008912083709079307,-0.0008608687909603344,-0.002716522313460541,-0.0007563435088757834,0.005209769662395568,-0.0014035413923159062,-0.0014627607274738685,0.0013075058204359245,0.0017435626388846359,-0.0030633982232095122,0.0003964355486619771,0.0015249441088913858,0.0005175752883654409
-0.002790430860036994,0.0006135031511064775,-0.0006334950949059813,-0.0006245921410101794,0.00017194697449775007,-0.00023248882277276625,-7.752724745331244e-05,-0.003847946556506113,-0.0030955114491921366,-0.003186086118097475,5.897026834147153e-05,-0.0017819179373062609,-0.0009277363511272904,0.0031388870360998114,0.001410589781632276,-0.0019942965131150114,0.00048212180773323,0.0006334232807590711,-0.002194482329694077
0.004259538000540559,0.0018347795192189583,0.0034582890072791935,0.0006669888090851024,8.157220073539454e-05,-0.0018306598642841639,0.0002548667681080012,-0.0006506105868737052,-0.0018040265791740237,-0.0002524601950217278,0.000509876168137661,0.0026874099519459673,-0.00227067309033227,-0.0005806505347502023,5.036450747770183e-05,0.0005928358396431389,-0.00445577909610123,0.00270595664643591,0.0005426266158988344
0.0023234570724184438,0.001434528577110751,-0.0009074365255626681,0.002381612795556746,7.430189089497673e-05,0.00024688912158736943,0.00032067056311108495,0.0008372387316949848,0.00036760355878211155,0.002268074012556517,0.002773005848557789,-8.380652186598097e-06,0.004911906154227914,-0.00410939355828795,0.0003386552773385517,-0.0007525271192408292,0.0010094532672171627,-0.003542857424618821,-0.0010972914337286505
-0.0020200406345110417,-0.002906035847252292,4.7476773211048964e-05,0.0005083261336641258,0.00016027677770263249,-0.0009249057545475747,-0.00038049000986701295,-0.0021946543976191788,0.0037239212097700904,-0.0023945015136356057,0.0007606728326435206,0.002405776611405052,0.001201583141908754,-0.0017980026979286712,0.00048359150624433856,-0.0007682068957012039,0.00364866497820858,-0.0001184527955673778,4.0442504408142184e-05
0.00019050329595192826,0.0004928597654381676,-0.004210266180059819,-0.0003164036039330126,-0.0014756661919874306,0.0007388799177994359,-0.000605447820062419,-0.0013054010372239608,0.004213361690232125,0.0012901950122091834,0.000801075224330963,0.0020311581211839994,0.0031175401291275865,0.0008224226048041628,0.0010814976304098594,-0.0014941185323506475,-0.0031598727329221438,0.0002502281637197093,-0.0005750195232762535
0.0006673920583425225,-0.003834094009880986,0.005323503190027806,0.00253108553719668,-0.0016752341215670078,-0.0026325404894911126,-0.0020682673017981637,0.00019917611436814743,0.0011343045360764146,-0.0009884793357330221,0.0032407195660869117,-0.002231623310643511,-0.0004698224408017913,-0.0013594649192474808,-0.00033029739832343187,-0.0035080986114594307,-5.353677095329735e-05,-0.004831468817727511,-0.0008642617395351024
-0.0019194270814542446,0.004454656757289145,-0.0006106471051417932,-0.00233817265475957,-0.0010415027938079943,-0.0008380915051463294,-0.0036739922951741313,0.0005166591412062789,0.004748748102482487,0.0016552245207270447,0.0002441752982055396,0.00011276602272492068,-0.0014090066588331234,-0.0001426665975118286,0.0009819780191322215,-0.0018875875906877566,-0.0008194218560341162,0.0017131232061070667,-6.457630268621099e-08
-0.005891912582657084,0.0008864943794838505,-0.0008319678453670449,-0.004804080986390665,-0.002242003346781219,0.00047697398719508523,0.002159157713064511,-0.0019921936014175444,0.0005178208283149684,-0.0005802616227865169,0.0013074367328683744,0.00196856712238841,-0.0008512221171273853,0.0010192987281517634,0.0002516482416825069,-0.001896913144883609,-0.0011645499863739482,0.002540830280202626,-0.0010644241574480685
0.002691945458147961,0.0033773464062285957,-0.0033970854090849063,0.00043435185875298645,0.001413467841752374,0.0023173088910223446,0.0002778566056891971,0.00017064158203992897,-0.00014416249859175572,-0.0005289417142676502,-0.0016497819529761129,-0.004322436986179683,-0.001294932126331995,0.0009055404803485,-0.0006160303481422173,0.0007871060137200215,-0.0017999590149998274,-0.0007202320302620467,-0.003440345663363543
-0.0005284226439446055,-0.001889344107403032,-2.1516079310384227e-05,-0.003654329667557535,0.002857935122848134,-0.002055923012375856,-0.0009063525204776982,-0.002262782018921797,-0.0016120493167348215,0.00043856921153138066,0.0023612904569015997,0.0019713290531304774,0.00034327322224987774,-0.0014949197302552488,-0.0028194104753669473,-0.005100197964995095,-0.0002980570892944023,0.00034726005733136384,0.0011720490897288687
-0.004090765887899307,-0.0023820540944629177,0.00023596565331189382,-0.00023653118065905448,-0.0018697779491787419,0.0002628308267413377,-0.000473846075498901,0.000613865690033588,0.0015840124687987768,0.0007299014570721629,-0.0015892160453879246,-0.0005466652091161608,0.0022009763396739416,-0.00207296916187507,0.002232679660279037,-0.0017321751396546221,0.0024113968917435194,-0.0013826388322604878,0.0031774414883870613
0.0012291704185242104,0.0008473942129408062,0.0010091559902693085,-0.001456914420320525,-0.001208609250913928,0.001375583767190516,-0.0024632417839537423,0.001616802878770487,-0.001878854325199281,0.0020378273070538796,-0.0009288824242334938,0.0001651759761364109,0.002411616687404034,0.0020011094979993224,-1.9423617815461283e-05,-0.004777028949692958,0.001884092889032664,9.912355515162155e-05,-0.003382951561840818
0.0008870507187397014,0.0012869341569330213,0.0004919652995530853,-0.000612196867441303,0.0009652680867299263,0.0006722697746512688,0.002005150292132983,-0.00030017849369894686,-9.12670344812658e-05,-0.0002512993823588901,0.0033228299191585204,-0.0003534165488668737,-0.0012301456622270863,0.00039422771651978624,-0.0016239639384298815,0.003382939160153965,-2.5740720399018055e-05,-0.002871116544369123,-0.00012853382138460048
-0.0013105168850644285,1.348773931515161e-07,0.002267013604295037,0.0008211074811859014,-0.000429973858414469,0.00012008383312538859,0.0015870642910854234,-0.0039160656082146,-0.0022907440555742565,-0.0007504215955956613,-0.00029548315555460753,0.0017135164311222661,-0.00662345713216849,0.0023508925211386754,-0.001453418117702718,0.00111218076035388,-0.001771547884663115,0.0007871625104813177,-0.0012285907632286553
0.003397278655620261,0.002568925758337875,0.001373884747250772,0.003315203530627045,-0.001468329469226186,-0.002781718547338743,0.001715486211619727,-5.985099289735198e-05,-1.495700442816223e-05,-0.0005889316129686811,9.666274364803209e-05,0.002771304620766787,0.0004492253155722543,8.135830642173425e-05,-0.0018557158341178475,0.003725599706668906,0.002270115647290423,0.003997483595673584,-0.000367806646172475
0.0009086833018383827,0.0015359589819049278,-0.0020147379237574854,0.0003947492400779942,-0.00016122789146008718,0.0005289840753226914,-0.0005720340278363863,0.00016708304399190002,0.0017486688070374227,0.003935222802418243,-0.000902466470838725,0.0005858128660541324,-0.003945590953473036,0.0008330578599810423,-0.0009598916551211951,0.0023516941631730208,0.0036157120519841176,0.0005339399542518116,0.0011149256545704654
-0.0006424371228152717,0.0010857595079910502,-0.00038620453954704963,-0.002414759119980104,-2.7707930671873684e-05,-0.0005718533665172751,0.002721284755163076,-0.0007555111480861717,-0.00013486110550135495,0.002232325458341424,0.0013837952251826967,-0.00039348256023112046,-0.0008900006288158356,-0.0009432024272185592,-0.003785503696200388,-0.0005529769503220395,0.002476024094541001,-0.0018747342821427094,0.0003986570804205121
0.0003975422660666844,-0.00315174454788375,-0.0015325554683778648,-0.0032429198882938286,-1.2934969687607593e-05,-0.001286632879177516,0.0006158042142672205,-0.0009316173684219266,0.0010771513283426605,-0.00013690659352060135,0.0044796483881315245,-0.0029175476483229933,-0.0003457090087156121,0.002879838675282122,-0.0020747801615359717,-0.0031716045871324956,0.00016142194835757484,0.00026671457332384444,-0.0010280296468850774
-0.0007278329519726614,0.000758210374256522,-0.00142209463163662,0.0027031428170907644,1.1046280341000736e-06,0.003811703295282944,0.0031523472511229152,0.0003543422653421116,-0.0007361900268184422,-0.000403444324478043,-0.002335289982133068,-0.0006456465667202788,-0.0014210839066981218,0.00010021284241658028,-0.000833284568988547,-0.000161918429173475,-0.0006762462314091728,0.00034777763059921934,-0.004193845441731142
-0.0017367963903360754,-0.0011370351955302547,-0.0028338319541385943,0.002929658693778999,-0.0007058588375570804,-0.0004760221562310054,0.000534192005466089,0.0007803291061860431,0.0015122847070220729,0.0017147713654948708,0.0017514665738197594,0.002530690395060171,-0.0016541233702700995,-0.00091599432300062,0.0005409772558818562,-0.0028119456563704256,-0.004140677631978998,0.0029505437071353684,-0.0009755091388395316
0.0030092347429978698,0.0016569479149066613,-0.0030022679834913724,-0.00021770367482933637,-0.002260506044396716,0.000150575448329581,0.002149089546145352,0.0007033072123551621,-0.001296318953513375,0.0007431468831951667,0.0022988369151516375,0.003537973921472207,0.003877405149171231,0.0016896078620918164,0.00041334934501844993,0.0015080798998545787,-0.00037149338612085353,0.0025260868520310437,-0.0025739737350221523
0.001029396980282431,-0.000779641835450345,0.0012405520468442301,-0.0005056097595958132,-0.003642082361951939,-0.001426148257399702,0.0022804648844260275,-0.002341370961042347,-0.00022696009673946516,0.0022853730752532735,0.00019466937495822494,-0.002784808823340168,0.0060707681983270334,-0.0005191420721558978,0.0003929997275255809,-0.0005519281282296688,0.001926901207593643,-0.001178127689501057,0.0009083714094341404
0.00011791903297281052,-0.00450607865865106,-0.0020382875400676943,0.0014872831207690448,-0.0017235949982670543,0.0010441556909761894,0.0009446235838251896,0.00032179101341236744,0.00038707934159216295,0.0010496744978455393,0.001994190405387923,0.00085387024119229,-0.003041527181644226,-0.0007060482566689332,0.000191729892238742,0.002771620955709499,-0.0011861854432185632,-3.2004190679792058e-06,9.104867713318816e-05
0.00023070114211743987,0.0009693131109155997,-0.00037131315444334967,0.002839929119031458,-0.0004905312006940685,0.0007276131666667739,0.0014508004525768028,0.0009096360652664582,0.0028777916944613376,0.0037873658701457896,-1.7666405946252148e-05,-0.001895965025347037,-0.0007253336383801734,0.0019791016334449116,-0.002284900332621899,0.0014722015517738822,-0.00041547015367933584,-0.0014971643592717816,0.0015312093419384348
0.001184044565282001,-0.0008436584129367116,-0.0007042987636894769,0.0008557374201886907,0.004217733261034483,0.0018880218483365865,0.0004255431708711254,0.002510462691471142,0.0016319125523596054,-0.0037311532761086577,-0.0005783595243173225,0.0037893393516924873,-0.0009503284778515261,-0.0007977436949432632,0.0025102703445319154,-0.003347072041719524,0.0010185807250645605,-0.001456195297870123,-0.0005884586584190001
0.00014526197682861435,0.0028260323454152923,-0.0015141339248002342,-0.0037840423466637884,0.0011562233915768112,-0.0006362893140261526,-5.4350644962409604e-05,-0.00014353359666487993,0.002180011350744847,0.0002532957057046148,0.00027384421326396733,-0.0031350107221705037,-0.00021671230344651372,-0.0011142310143621417,2.2000069266321777e-05,-0.00026671314067710074,-0.0001851311775953217,-0.0008956659291000258,0.00023332304319278552
-0.0021284087542141924,0.004536001093620074,-0.0015386092336004676,-0.0024721898303968486,0.002024160587046636,0.003718687049170512,0.0046470698503566655,-0.0008526258016921248,0.0019231748999375099,-0.004854289567511675,-0.0035180689684156338,-0.002144796055098166,-0.001988862980441602,-0.003763478512377687,-0.0031149808793113284,0.0014266279806028268,0.0022442671222930883,0.0001263055316924331,0.0009396810377405652
0.0007838280421914941,-0.0027699236299840637,0.00122014822925786,-0.0016609048299397516,0.0005858884916339845,-0.0014819133533101898,0.0005824710877916309,-0.000517397361401948,0.0010266539102756534,0.0003433232180107541,0.0010685233197462703,-0.0040945911606553136,0.0017235028424774114,-0.000459741354651145,0.0009140368631383629,0.0010784290129065275,-0.0014767413826509371,-5.4533867751417855e-05,-0.004762432414391823
0.0015085897204495024,-0.0001950923586025835,-7.132396394075969e-05,0.0007700580431970497,-0.00041652416044676995,0.001834689147106302,-0.0007588195484039326,-0.002677410864396291,0.0004688795213982029,-0.00030376299708334504,0.003857978413813832,-0.0020924270042044376,-0.0010942393744333319,-0.0019833566092674025,0.0019920965697570207,0.0008822659950473027,-0.0001019331934229132,-0.0035435304070727887,-0.00013347016882357866
0.002617744035188294,0.0002086544619783389,-0.0033292503510481963,-0.0017823375584773368,-0.0012306726921301311,0.0025841214903756134,0.0022056449351796014,-0.0006514768607215866,-0.0038914345804028252,-0.0005182818130986974,-0.0005613135387496086,-0.00011960841632256794,-0.0009360706144632018,0.0018195083324672242,-0.005199768862161263,0.00250896299818302,0.0008020363488845194,0.0013985072813352825,-0.0031903033367332804
-0.0012891106755173335,0.00396556460124886,-0.0003304274520476211,-0.00010492627654682094,0.002479192979471846,-0.0018177432877475603,0.00418680363512748,-0.0021155221922177976,0.0015712986644101313,-0.005155925398179238,0.001343534532560891,-0.002318162134449841,-0.001768310552886944,-0.0008241618143545005,0.0002317267001040339,0.0005982542086991984,0.003629373303334517,0.0011230220095125615,-0.0015723287583380955
0.0003038473296395195,0.0021203893487713545,-0.0015126864633160093,0.001505098436041586,-0.004095242046505953,0.004756046889629492,-0.0017201362651264392,0.004186885678931016,0.0023577574767587573,0.0026764714818622217,-2.0758040111167267e-05,0.0017866561237341013,-4.548316662574493e-05,0.0020270972154099024,0.001137380881709229,-0.0014265025684720685,-0.00030322000342015217,0.0006972773497605821,0.0006125419477542004
0.0006778329260839104,0.0003916332343196049,-0.0008744953207549718,-0.001973086478685686,0.0017424449851606396,-0.00012161257708638808,0.001136612218927175,-0.0010108535187352205,0.002766698248557289,0.005701432903532377,-0.005148918259109076,0.0007075170988670422,0.0006423186378307812,-0.002917004213527669,0.0014839011905981188,0.002816365558115074,6.727900521726528e-05,-0.0005836139166518187,-0.002612492299489294
0.0031859139960798053,-6.309211932947391e-05,-0.0016508094023415906,-0.004216723265667732,0.00029946671243747037,0.00014579659641552882,0.000214943890516865,-0.003022754362414731,0.0031691452982131416,0.00012136314935048757,-0.0009319787297735391,-0.000754051929889462,0.0002978697408644456,-0.0005697894716439229,0.001041108939084959,0.0004917728083749139,0.0006415206956439263,0.0007678698574160121,-0.002195233909444124
0.0014530182086767752,-0.0014753910704146523,0.001130400865318037,0.003327928698587823,-0.00030528099026421655,-0.00037808523719455047,-0.002273521726519168,-0.0005245079430097864,-0.0010564621592732662,0.0007136927804626931,0.0029886415535874257,-0.0014580837243203294,-0.001633989494250932,-0.0014920831723462538,-0.00017587789034573741,-0.0007891672100025773,-0.0006144624662569257,-0.002322604625401613,0.003032808298601342
0.004113201823180584,-0.0013464097635795212,-7.583526258224652e-05,0.003857401134254048,0.006469918345354696,-0.0035276225324503657,0.0014464676937713497,0.003592981043850945,-0.001071579354471646,0.0007460508187969669,0.0013085138283811346,-0.0022932995159254455,-0.0019230850337963587,-0.0016873991927108412,-0.0025032707137768477,-0.0001783113395215971,-0.0013449715151259277,0.00039313421119994003,0.0007037423729871375
-0.0003566969057576599,-0.0009061969680796025,-0.0008317571188978474,0.00543815155063883,-0.002472757162569949,0.0010198099002630644,0.001749545254544948,-3.988703140385571e-05,0.0005143092243982802,0.00017966485470711748,0.0001139437390271878,0.0013454161251052262,0.0038345829585684204,-6.69582841169949e-05,-0.0010316541240921364,-0.0033686324421275493,-0.0008740658627967939,-0.0001917729826794832,-0.0003314367111521143
0.0008505460283982141,0.0014473705046999237,0.0017356024464827678,0.000557644004882292,0.0014576670819926802,-0.002524840259759423,0.004753407505691885,-2.7905628115717046e-05,0.0010070121026072968,0.003254831088801991,0.0024466804383730463,-0.0004687797887852733,-0.0016780571862066267,0.0016727759311513312,-0.0006697869059710197,-0.0007793259030300322,-0.0010695183292244795,-0.0005323879351058738,0.0018437649584880837
-0.0007711772510677187,-0.005089719275558466,-0.0017093985968974412,-0.0011056589271988878,-0.0019700490774598426,-0.0028584712973469964,0.0001811449738651184,0.0005811255560653838,0.003605799426717021,0.001034345862145386,0.0015921590910249648,0.002867216070416393,-5.483314158569523e-05,0.0006222376387749631,0.0010327246580949287,-0.0033465575638401183,0.003554690090963606,-0.004854471040178852,4.289863162922256e-05
-0.0006316222057091576,-0.0018749921087452862,0.0002394898322435947,-0.0015188955464956035,0.0024467028284071296,0.00203508186414481,-0.0001682571908049152,-0.001646909135352515,-0.0016971276991706557,0.0002980177439057818,0.0001479815079169813,0.0018294511809220596,-0.001412173679416872,0.00207161669920266,0.0019898955101251502,-0.0010539726578725228,0.00041039206679986613,0.0015751033734239038,0.0016526776025732426
-0.0004972986397489741,0.0005979820075727702,0.0009656199612705943,0.00027579111181189015,0.0010739928631276104,-0.0007481003822916435,0.0017996440254019618,-0.0013080258394133038,-0.000274569074175904,-0.00019783033525679056,-0.0006927404971429364,0.0002812715278281046,0.0005482858537146563,0.0018733921941552413,0.0004050679286528725,-0.002375247847068901,4.614251401397247e-05,-0.000938237106750622,0.0006879837953709333
0.0004622269075153464,0.0017234827370555766,-0.00257508875831169,0.000695712461430525,-0.001464041918337435,0.0013121517830843262,-0.0018559702454584894,-0.001471683166333833,0.0014927120601110112,0.0016730900842167325,0.0011094806144839068,0.003114564569435529,0.002037772864035339,-7.342755959622714e-05,-0.0016544290911342384,0.0023087606755866027,-0.0029854497653611467,0.001173410839268837,-0.0003955645649765616
0.0010147707140929568,-0.0009575706628197894,-0.0027413842001164394,0.000488667913088673,-0.001803200110768958,-0.0033270450665279358,0.0016461837786467385,0.0015016155418454984,-9.09829474467701e-05,0.000601775670022214,-0.0004901804411222573,0.0030718685825133407,0.0009260733386954686,-0.001045065114172447,0.0013735519901674471,0.0020393478817786665,0.004606731899672251,0.001777695381656067,0.0011003525202286086
-0.0008890218399784691,-0.0007174178982749792,-0.0034595405723695633,0.0017404953895103798,-0.0016147698845256425,0.00043250146551057617,-0.00042194766891666397,0.000165111679178909,0.0011237762609313626,-0.0019443896312554003,0.0008437003556580041,-0.0003935213506532127,-0.001335422504580067,-0.0007461377635634388,0.0021994137632738242,-0.00234800561510387,0.0029795287977488695,0.002179813314086941,-0.0017051924768089499
0.0007547145572268614,0.0011609195457630435,-0.0015853364951606387,-0.0003391730637582591,0.0032762910085427374,-0.003640689009103837,0.0027366198334942238,-0.0027332739475211068,0.0018505598349441692,0.00013203529571885171,0.0005928147775789251,-0.002008330533068432,0.002957788632529031,-0.0030025588969166393,-0.0010108498681372774,0.0020310378466700074,0.0025510170645613793,0.002143891105445202,-0.0022023112957596474
-0.00019810387406312996,0.0014609331639159067,-7.675597548134408e-05,0.0005159853558914685,0.0006023826847911056,0.0015231400832230405,2.585900323523077e-05,0.0028796488383952606,0.0005289915672725635,0.0021669249213504475,0.000530961035985454,3.642334407383558e-06,0.0017728293758196606,0.0032306186689637843,-0.0024828552849851444,0.00160801644468551,-0.0007153735526541754,-0.0012623261039934849,0.0032586244391284887
-0.004258180043264223,0.002893690711201482,0.0021897600728168504,0.0003796002436230685,-0.0011262328814888988,0.0005747932434875178,-0.0014820860612951028,0.0005042607589207189,-0.0014023037317283623,0.0004480979579842021,-0.0005979126014651174,0.0008826867085518407,0.002261314651745791,0.001985147424111226,0.0008755023256846406,-0.002561441523319328,0.00033450175464196894,-0.0012665458459826784,-0.0004751142502788703
0.001415828740977057,-0.0017728452334893892,0.0012480382543683653,0.0007927131266608717,-0.0017728929366842812,0.0031920301007367,0.00044856287595412456,-0.0032285664444051316,-1.571907939538052e-05,-0.003666667110468293,-0.0013969135261607572,0.002794735368913966,0.0020967164361022275,0.0005351494452255875,-0.0008480682662933647,0.0001473980563151025,0.002483794906845296,-0.0028503460261387913,0.002603432762257774
-0.0026468026164605386,0.0012530847309739747,0.0021098020406776536,0.0002617299956480585,-0.0030154458145533886,0.0005961209473052776,0.0023090542783484047,-0.0006536346504412392,0.0010823112958575215,0.0016088459423902687,-0.00014649975548869438,3.759363554038123e-05,0.0030697281277995638,0.0030877147785699486,-0.002477211239917074,-0.00022644593742451966,-0.00432434112225306,-4.378910638085877e-05,0.0003690392356874082
0.001514004003581749,-0.0010810250210691512,-0.0019411263569329923,-0.0014259102366359364,0.0024725128858880396,-0.0024708075495916975,0.003243333386045378,0.0007133250005709405,0.0012384479959364546,0.0021057288118904835,0.0007631381943185296,-0.0018526020962523276,0.002076748805735547,0.00041651327435387965,6.583692536506193e-05,0.0016738513530039662,0.0002560615842296619,0.00032188136004285517,0.002845673859418416
-0.0016922458407089764,9.37288508807606e-05,0.0035277400694314785,0.0034599119211147582,0.0013439325275105775,-0.003641815130539178,-0.0015137255907431,0.0026240361956800383,-0.002208704849292658,-0.0016196735592606168,-0.001727404326501625,0.00010624788385973798,-0.001659444323607642,-0.0016865810014734684,0.004419035941766649,0.000253800562649628,0.002951264959894226,-0.0014313870257991663,0.0009618086095518707
-0.003360472087519731,-0.001263229901101104,-0.0034460701855246792,-0.001762983713066025,0.0011015624373020667,-0.003228094921797526,0.0002912477738174807,-0.0010029923356855536,0.002193594082528798,0.0026872123095246585,0.0005485009279051581,-0.0018390199354711497,-0.0027497225754786513,-0.00190462437554617,0.0037843580998034127,2.1920777032555422e-05,0.00019902428261858442,2.880633443504985e-05,0.0013106433060919567
0.0011778139197943396,0.002261689893783756,-0.0006342985672545499,0.0017032890795513251,-0.0024277960662198203,0.0017995203412535768,2.998926434545358e-05,-0.00011355484295526764,-0.0015795125952565608,-0.003790091758867196,-0.00476386765161201,0.0010501542381194855,0.001898166038392642,0.0005297461787115446,-0.0011803690069804038,-0.0006045868672461328,0.002954042573516456,0.00016384574743884695,-0.001646616877632506
0.0014074380883458812,-0.0009000684731318432,-0.00033587116757566017,0.003090673170800711,-0.003000647875647785,-0.0011507249152335342,0.0010916825062520861,0.00017083080941389403,0.001958503590716931,0.004163623885858735,-0.0008264881570896173,0.0007702180067311926,-0.0004011311516457971,-0.0013443158219745954,0.003537157832376251,-0.003005365830163311,-0.0005546643881596242,-0.004425535614919321,0.004285309757038739
-0.0029542686736527615,0.0004906758307473473,-0.0007858725340570451,0.001418219800772803,-0.0033595818146579777,-0.0007610269009407496,-0.0005423885536078694,-0.0006244115214618907,-0.0028207888975721233,-2.3809569827261093e-05,0.0020150778473439455,-0.000939865909947019,-0.00128007433446146,0.0013678446435837403,-0.0024844098475953137,-0.002564883483836848,-0.003831405842957168,-0.0004004712925169807,0.00313096258194971
0.002010741927777628,-0.0017700829683149155,-0.005408897942692733,0.0031014677356823992,0.0013707084810574293,0.0003718922854123462,0.0012759117661290285,0.00013385643126712297,0.0011343023579738901,0.0015854382076235351,-0.00040961048295171196,-0.0018698346542750488,-0.004267328066365097,-0.0006818537574692686,-0.0028666420202749024,-0.0022829889957797197,-0.0035819790459836725,-0.0022776676246987104,0.0007252469415502909
-0.0012555544071366082,-0.0019268799480729774,0.0008870937417693058,0.0014882118784366506,-0.004137858813502469,6.105681099706335e-05,0.001099807920930972,-0.0033770538374201546,0.0010172940325342866,-0.0013885321880670622,-0.00020207828739767257,-0.0012196522588800828,0.0005776467881730514,-0.001063508005093572,0.0019346598200545304,-0.0020475971146695455,0.0009737554956297748,-0.0011869468979688702,-0.0008094304045657072
0.0012433690919885585,0.00014730965069242657,-0.002519534429496507,-0.0020229926264284112,0.0009053297058546349,0.00149526657607572,-0.0027108305708684766,0.0021601916072338653,-0.00036473720920563937,-0.0034212030062586926,0.0021649399974602215,0.0018266812494545693,-0.0008289931340014485,0.0007176675374877328,0.0028748956805927832,0.00011260505170587145,-0.0014465740256806349,0.0029536831479022355,0.00012764596875984338
0.0005211743049725989,0.006144923553001176,0.00015391875661522323,0.004428003187936162,-0.0016162772688686723,-0.0005954830708337954,0.0005301630353806955,-0.0014233686366701892,-0.000968276021973209,0.0007153322339154997,-0.0010539597091312619,0.0018311700434450794,0.0023685452699313864,-0.0006660240799027711,0.00025878097520303796,0.0031843007701675232,-0.001283456277159189,0.0029960151501399078,-0.0012629765680277675
-0.004889994172904546,0.0023577552779071157,-0.0015437959958297847,-0.0034825300852228233,4.1069557091553385e-05,-0.0029274686009583104,6.911068568482516e-05,0.0003972337654471296,0.0012076310481048814,-0.001317895647072432,0.0005880753884320082,0.0009761547142128365,-0.0006233322336227728,-0.00024067454920843415,-0.0009517357442512234,-0.002216924455752839,-0.0004600876360933109,-0.0005048270685755986,0.0016387023518830294
0.0009197648566020591,0.002014834679170086,0.0017244563940376654,0.0008710414393137266,0.00221110214228704,-0.0022427306355748003,-0.001384844030924441,-0.0034964346598832753,-0.0008800131979656901,0.00262366669269287,0.0005425392911956012,-0.0028037800482124844,-0.0030511280411569188,0.0016834708757242206,-0.0007922977542528791,-0.0012351268446090574,0.0009595672720739965,-0.00022161350703511266,0.0005917340113518409
-0.0017956609577854084,-4.4688057278111666e-05,0.0016860407790051947,-0.0007729108350703899,0.0008712741232346727,0.0006842443961712865,0.0004930756919994926,0.00014579955182157078,0.0005043509529942987,0.0005198698206458614,0.0003048256772841533,-0.0016834102076629823,0.0006303667699232521,0.0005834996861070117,-0.0018407633902818561,0.003920144981351994,0.00038124437061249624,-0.0001904030256882841,0.0031695029066225494
-0.0006693614962812682,0.0012913519159105337,-0.0016543887300175964,0.0010174023303746573,0.0019430225253469046,-0.0006475722948121964,0.002310757280541586,0.0015762127913270304,0.00022576113492481047,0.00012851029250429382,-0.0005827588490079831,-0.0032786700034600344,-0.002660615093198378,0.003307004881692482,-0.0030618118926995903,0.00038464225654526055,0.003259765502100944,0.0015228078261322667,0.001629478719549904
5.006010066327118e-05,0.0010871748524168702,-0.0006525673312144464,0.0012479869198063248,-0.0007615604146860225,0.0024339862739112383,-0.001629996398959497,-0.003034018060062212,0.0018887215924956405,-0.0011755440746786074,0.0011037079760806547,-0.002485004131596342,0.002218421975268062,0.0016649181983421865,-0.0027600825384967707,-0.0030163742648164084,-0.0009612008430071004,0.00046363546707324597,-0.004160580613795698
0.0013266978210397572,-0.0031041920956047624,0.0035840373708284834,2.3733536213048777e-05,0.0032753583184275447,0.0029955518880987885,-0.0011184034736934896,0.005635290131002867,0.0012835917512971473,-0.003145276451534657,-0.0026787889481248313,-0.0005108161891793208,-0.0002988315711720385,-8.822902915560397e-05,-0.000270343248459384,0.002229950053069783,-0.0003502538554319458,-0.0005439514252261788,0.0013957342565174198
0.0022011099134542477,-0.0015116002033359378,-0.0004163429551041941,-0.0025953822620732947,0.0015382308179679796,-0.002785476868002539,0.004035308917517219,-0.0017348186017256506,-0.0031703762361126367,0.001460759274646138,-0.003941008201508505,-0.005708709359517891,-0.0029695638006655665,-0.0002532057280215268,-0.0017631705105561719,-0.0023682999720178034,2.7946269563755266e-05,-0.000527065123394221,-0.00048740117579297457
-0.0031512653366876143,-0.001673721287595382,-0.004169181385326955,-0.00041741713292615923,0.001096518687162746,-6.0198712209170134e-05,9.882079521014493e-05,-0.0023637417318160383,-0.0019707958026750107,-0.0017817996611994163,0.002743476853801503,0.0013714755843406495,0.0002935354167833228,0.0012597250791790372,0.002621061429877934,0.0003288734805271571,0.000762350766565101,-0.00018896475038878118,-1.8066134615531612e-05
-0.001730060127533216,-0.0013177672224020027,0.00024930312593482033,0.00015237164031470194,0.0021606067712986723,0.002647934492395955,-0.002630354915366565,-0.0002817925530598512,-0.002415746445387503,-0.0006487648933767081,0.004515578241367509,0.0018691400186723862,-0.004907673338077629,0.0014150759557390795,0.0051786163572844985,-0.0006832684904490508,1.3606413586945187e-05,0.0041755691202037286,-0.0038435420372456724
0.001163939216725639,-0.0012671183888556992,0.0018994544985767201,0.0047408261592987245,0.0012034002913610838,0.0008976895066517665,-0.0026576229267566876,5.5718855168637175e-05,-0.0007649551592745812,0.00039576724291849976,-0.0009617532530032647,-0.0003950538130453768,-0.0008043229956810003,0.002229975001208239,-0.000300214028551438,0.0013724739198881406,0.0012541254319852044,-0.0007454661424885851,0.0038473067188291594
-0.0007348780280168676,0.002405533558731358,-0.001159053090151561,0.001355186629335331,-0.0024830656618116884,0.002210371075934386,0.0014147117434361338,-7.194330557034129e-05,-0.0035659042563269284,0.0006310602330609664,0.0004580962372322137,-0.0005684213962822384,0.0018119298588934565,0.003462926897170966,0.001466290195413177,-0.0003863458475655185,0.0014303906952672064,3.7632008779406525e-05,-0.00039934376419714407
0.0009452126879295131,0.0009788516698023926,-0.0021123478880861906,0.0015409619643942838,0.0003883467293023497,0.0014989777540633192,8.409523495733453e-05,0.004330999491242834,-0.0012232537392128397,0.002490435915728576,-0.0003282528504335322,0.0013227049182254957,0.00168341694048611,-0.0015062425376473425,0.0024515715696164214,-0.0016844388847714001,-0.0027610288977710454,0.0010278445923459325,0.0025069838581417967
0.0012300654659186455,-0.002344281889543529,0.003259828021634806,-0.0004629914459752184,-0.0017330896917236486,0.002520744699754206,-0.0016644957450962959,6.006292840790565e-05,-0.0030370715106929898,0.0028860573956422772,-0.0007509475547210548,-0.0013308225955295588,0.00185015211206629,-0.0016005333761631797,0.001013578755488421,-0.002908187629074556,0.0016237404108761534,0.0011939922953045222,0.003613039178173887
0.0011264337449274555,0.0010622586356286243,-0.001104820981090135,-0.001368800211784067,-0.001350920094027854,-0.003838778139801245,0.0019084507594142725,0.0013712246914656524,0.0009198703469373971,-0.002998987745920155,0.0008448486287196154,0.0014369501520049021,-0.001913366180428225,-0.002559478257566715,0.00030818443441645683,-0.002147790756454591,0.0010640366595862487,-0.0014785460844781633,0.0026687112032109514
0.004520551508980125,0.0008687961773974458,0.0025462999102367195,0.001997558487399656,-0.0001446920998183451,0.0007735988783498168,-0.0012863183112926024,0.001898361990324929,0.000821275123154627,0.0011763261095902925,-0.00035489571610306886,0.003168511589089833,0.00023140466802319633,-0.0012747848272852108,0.0017713319753787584,0.003333662803225839,0.001347424868196242,0.0011813267507713558,-0.0016983305597604915
-0.0005112642228391713,0.0008718092089557878,8.185401554430816e-05,-0.0002910912215977454,-0.0025845617102375185,-0.00046905547091673157,0.00027778504534789163,-0.0031937896080187385,-0.0004345272628881161,-0.002323943553730241,0.00016938056024844584,-7.350607526957947e-05,0.0024279276470195394,0.0008072915407898499,-0.000878766296943427,0.0019359406491420508,-0.0003007116100410179,0.00040886703634668037,0.0018532714816521022
0.0022816502669242046,0.0012068198026044855,-0.0010066023419924401,-0.0012871273018277428,0.004769447501481232,0.0024229170161627327,-0.00012127980353776932,0.002536903816261974,-0.0010413334770551987,-0.0004423705131112052,-7.320964625087181e-05,0.004844033285303349,0.0004316636463858226,0.00040972020392498316,0.0006984036695669995,-0.0008587758493727843,-0.001370267719335383,-0.0007610615337061431,-0.0009681491879916322
-0.002213064423634943,0.0018507870959524413,-0.0015103601397815055,-0.00105871516637632,-0.0014159606151102281,0.00042570457096869317,0.001334140397714761,0.00043176209260962795,0.002459732722046662,3.1465347289789934e-05,0.0014518530766767486,-0.003405531660620476,0.0008929139319176254,0.0016389292952380455,-0.0024109610383603024,-0.0011399464090895487,-0.0001210463450679274,-0.0019941831870963034,-0.00047659142693643315
-0.0019091315433235332,-9.639324962479921e-06,0.00037440126628604276,0.002694461932630268,0.0009502317747988416,0.0014806564534707001,0.002109868733598002,-0.0003978998949009527,0.0030448109981913722,-0.0006995040927939059,0.00037874949783904554,0.002873611509692897,-0.0005571886421477809,-5.4872293688750496e-05,0.0009938082203534177,0.0017686949303502453,0.004449483201064257,-0.001647611816455193,0.00038370184425375677
0.0021269776814681935,-0.0006149475497248081,0.0003577424877504577,0.0010095666143302932,-0.004483599113947238,0.0023288164980417012,0.0033629352351318567,-0.002418274089197579,-0.0019788136540528846,-0.0028370407908043438,0.003247380836972367,-0.0016534443614040798,0.0035393664680183927,-0.0009425015355009556,-7.301239257927594e-05,-0.001247455740662779,-0.0027562549443850876,0.0005553704567045467,-0.0034499412591307453
-0.0013188497618179154,-0.0005269718805686703,2.945911408005591e-05,-0.003728251259903529,0.0023334249379742245,0.0006482642012347757,-0.003037589619664814,0.0003576232033783787,0.00053589402105087,0.002013776258829015,0.002134476979492634,-0.0009341283173598944,-3.338230218347037e-05,-0.0030997474208726123,0.0011603811602356182,0.002760814713445492,-0.0037647080609694216,-0.002848578042984964,0.001885814342218246
-0.00261859508915399,0.003045343059457749,-0.0007712362498989389,0.0008129597448220102,-0.0017150897884206174,0.002820311193674567,-0.00065520707622443,0.002547394207522915,-0.0025784428505853984,-0.004466688398545649,0.00040452385240316645,-0.0009104317996218987,0.0021394477518800925,-0.0011691154395041695,-0.0004883802191880885,-0.001175868618537282,0.001969573415735098,-0.003479794747061585,-0.003410892744954021
-0.0004982108808285884,0.00020386207622846256,-0.002854397118738793,-0.0011692936891393012,0.00034293387886008623,0.0014263346005766902,0.000818601634685615,-0.0026571311028134523,-0.0021749058084032285,-0.0007407131688172549,-0.0018867418619130103,0.0009445727690529966,-0.0035837197447686664,0.001468614566399105,-0.0027576628187521604,0.0017749951756550642,-4.334189685455744e-05,0.0022025531458016983,0.0014342917183961335
0.00037590316750920564,0.00045273849743161066,-0.0005489316311536901,-6.526004794568995e-05,-0.0008280806544852995,0.0005265092752733178,-0.0011619982699212265,-0.00038748394255998546,0.0007694785787669689,0.0037082762557230694,0.0012461980567981307,-0.0025332863047382993,-0.002783727975330918,0.00048290337225053836,0.0009507062636559486,-0.0007488112551488359,-0.0013527381313011106,0.0001559148656255628,0.0028554335538406805
-9.691464713932725e-05,0.002532105124521524,0.0014862756604649481,0.0018466255063631235,0.0009803045547040385,-0.0014056668141167448,6.521679690524193e-05,-0.0003778977096527417,0.001403703246821589,0.0028529627803164526,-0.00258761761087896,0.002217163524847414,0.000255158132347893,0.0008945125776876244,-0.0005547030091284274,-0.0016468846746365662,0.0006952170417762796,0.000695198630499244,4.693635894074835e-05
0.00019350922387100474,0.0013370929755879993,-0.0007125419820993083,1.4229637401418088e-05,-0.0010826986971081793,-0.0004454657490273538,-0.0011836192458696381,-0.003763400016576416,-0.002654878030174456,0.0003329969385717904,-0.0006399528840756977,0.0028856731274904987,0.005645770961099617,0.0036642575799573185,0.001594633446831028,0.0017757376151836433,-0.0024816710227296666,0.0018323952658213644,0.002952000400864102
0.003837594720998214,-0.0034195013862487493,5.909200398920203e-05,-0.002125101039196167,0.003795446781598371,-0.003574494318928862,-0.0009516145976813963,0.0006899558529870261,0.0019289976077946022,-0.0017483548368320394,0.0017490416963415608,-0.0012776902023021001,-0.004437722341668829,-0.004648203422275327,-0.00222531572284926,-0.0011401689655903139,0.0024292441009461973,-0.001219761331327103,-0.00029185496933483823
3.764899669247429e-05,-0.0011436927807306208,-0.0010273985107625589,-0.0015340115582873296,-0.0015576113102422277,-0.0008565374070068068,-0.0012358513148285739,0.003109498092934381,0.001147155901531194,0.00013883582151737645,0.0019371870294901151,0.00010786915266868742,-0.000521985431347973,-6.187155307989447e-05,0.0007104533989381215,-0.002460666618828717,-0.0017631041541074268,-0.0026652707514704553,0.0004181470465613144
0.0010969410170349953,-0.0015126744665036784,-0.002064742352026032,-0.003032167989714112,-0.00025086408153045345,0.0017587539969403031,0.00034750789610730505,0.0016531903439842993,0.0036657515067226015,-0.001220879213422361,0.00202368522015824,-0.0005946811901248947,-0.0004196993816123563,-0.0013129968991629406,0.001294554285008776,-0.0024064917205595393,-0.00039938240734982476,0.00080850505210338,0.0007863849078948503
-0.0021911275106670375,-0.0013353262385878755,0.0002269006247768037,-0.002356689631139182,0.002627939755747628,0.0004475246799781559,0.002734343864845649,0.002598681286382667,-0.0020479130954837907,-0.0009950043256505888,0.0008980587503908043,-0.0006107841765887147,-0.001965561131134047,0.0020814381858510005,0.0022711282682568116,-0.0010858170574297628,-0.004610438996453965,0.0001318341401494065,-0.0019636412277513173
-0.0005382154446613178,-0.0025711229907781244,-0.0025396460063974876,-0.0028501891205123834,-0.0001625048661762066,-0.0017501712206809416,8.929080084537714e-06,-0.0006591848763065253,0.0022104580790304846,0.0013367707517270727,0.0008301356850641729,0.002663528918275961,0.00018115529567188832,0.0007553531408341178,-0.0002046894530939329,0.0004476956688644577,0.0007940520958685157,-0.003345468019359954,0.0009239677293822431
-0.004866788049096001,0.00022646773324844436,0.0005167986073226804,0.001280312225140708,0.002890248151010967,-0.0016804051548532301,-0.0007073299851556668,0.0003150320465492377,0.0008301462764504586,-0.004010263493865042,-0.001206214065973718,0.00235662443628884,-0.0016560410866941666,-0.0005068397230808305,-0.00016994327813574795,0.0022238785750567165,0.0009225160396521359,-0.0026007462547664663,-0.0019350436424313236
-0.0022147760651158375,0.002126345225776596,0.0028214492499255405,0.0022304430649957374,0.0031729314631972557,0.0008866902289730562,-0.0029964485021900145,-0.0007455189368621128,-0.0012368909030636471,0.0014114005942535456,0.0028631223570022494,0.003383924856582293,-0.0005856413180098386,0.003560405191244718,-0.0036513406538502937,0.005620131743662476,-0.001990876252582023,0.00039488365427631656,0.00010902828845725492
0.0010965899798154428,0.0017442371866674478,-0.0003274344759008133,0.0017195547880015294,-0.0025591035216256585,0.002289009643002731,0.00229133516351121,0.00261227320561417,0.000904797347059765,0.0027572605086109868,0.0007748631362160719,3.389123330721639e-05,0.002029115379729023,-0.0007601056688527765,0.003155782227395628,-0.004030276338834782,-0.004291037536122546,0.0011323796415294747,-0.0011674115649190847
0.002107026408832175,0.002141192231569111,-0.0007051267654132759,0.0012082915660843443,0.00500190920499239,0.001545102242767745,0.000979898143644654,-0.0001442573484694252,0.0010086242848618078,-0.0011445394123559276,-0.0009414415310357086,0.001029109851659188,0.0006558308535265819,0.0031820118457577674,0.0029095588130166818,-5.915196663631664e-05,0.0015336905002610805,0.0014866699457506832,0.0006927669618290795
-9.180391825921415e-05,0.00420271757191625,-2.252868122610515e-06,0.000783953367628737,-0.000985296818483168,0.0006341251463659624,0.00054002371380875,-0.004681171362725881,0.0026183272367550914,0.002124163722143795,0.000830153568675376,-0.0003067459818191898,-0.0004201686189224785,-0.0018800151742649031,0.0007757685909193322,-0.00436050995876867,0.0020487270579531603,-0.0023215500902782817,0.00043181680562090344
-0.00381246078882571,-0.0026044356253790727,0.00034996554729617413,-0.0012507254798532791,-0.0017076045359660115,0.00023159281823085807,-0.0027135905138579103,-0.001098823535552797,0.0017266940093393968,0.0032772735707676578,-0.0004872337021870958,-0.0010135864579798647,-0.0024709024762945573,-0.0004362286080711941,-0.00012501062460254064,-0.0004163453725643967,-0.00014922114750822748,-0.00102430513806812,0.0006638114440940137
-0.003273698480821284,-0.001075586139715114,0.0033983447329711826,-0.0045183160033941796,-0.0030403695162734812,-0.0012708881681733294,-0.0009615093774663565,0.00045009041460126217,-0.0015698421401423664,-0.001434200563002672,0.0010513485953172537,-0.002737865440624984,0.0032102862633941426,0.0010721778258776778,0.0010448250763882216,0.00424079653463835,0.0031277565952095056,-0.0015063622575707122,-0.0009466080722317465
0.001661608228715027,-0.0012679549201657337,-0.00023950184131019543,-0.0015820268055529159,-7.644601894896094e-05,0.0014906505756697827,0.0022129655648346178,-0.0009950496066925248,0.0018962491918104566,-0.0016576390671853751,-0.0027268257276287103,0.00360955206635696,0.005598876573473427,0.0003061216287897026,0.0002518961527629266,0.0018116732867509738,0.00038862579626001704,0.0020374324734592987,-0.004241079592931976
-0.0006136254032928773,-0.0026260831337142666,0.0012861379552935766,0.002637636003284379,0.0020868448982256475,0.001132843816835174,-0.0005337487536309142,0.001423679987417259,0.001013044347933627,0.0011252812211083219,-0.000873864221164539,-0.0009100120826388402,0.00452420469619639,-0.0002614232225977315,0.001273376493380714,-0.0015750692653254009,0.0019311122100138846,0.003481683091709542,-0.0005044271252400292
0.001100819671781059,0.0014661124439060648,-0.0026511533460971556,0.002055941656051203,-0.0014279758894479135,0.004851178252208263,0.00175340709839829,-0.0038676634233984304,-0.00018328235047447553,0.0003919453353395327,-0.0007664593242809266,0.0007584448428320642,-0.001796892105576607,-0.00013340278214319114,-0.0013103078450277122,0.0012617471530959753,0.0009533916629818523,-0.0014831857953739004,-0.005387552865741262
-0.003901022559222394,0.0013158300039070665,0.002633549018349867,-0.0005689449039538371,-0.004125534510319849,0.0009850661603760403,0.0017402453453361332,0.0018911066252848613,0.002764275724622054,0.0018050114676376667,-0.0008565757463423378,-0.0038048638378077675,0.00273898673725387,0.0018210925175936598,0.0004634353930856291,-3.776160711639954e-05,0.001461299825465301,0.0008896633990402768,0.0016600858554847576
-0.002055257312688301,0.0017135430639250116,0.0004607655608206277,-0.000541580486538311,0.000515975437444483,-0.0018520426832178375,-0.0017181170055284864,-0.004108487380564784,-0.00015626117089227054,-0.0015002107263224565,7.946349895740838e-05,-0.0023379977779565456,-0.00015760498200645157,-0.002688938770599404,0.002995869933804428,-0.0010686846360977514,0.0018367518993782366,0.001128610823458332,0.0017365359922435046
0.001665711980929672,0.0014324816761531042,-0.0008856359029959896,-0.002745131303624917,0.000634650508181031,0.002861156407686455,-0.001459122563311437,0.000285036857188065,-0.0023517538031993133,0.004025019005521634,-0.004305343801052279,0.0002462528173208519,-0.0024121864695127435,0.003985561337027831,0.0001406968142086009,-0.0013860618919802254,0.0016161478409542074,0.0007998415513560486,0.0013307031348415487
-0.0033387719277105416,-0.001949286010486028,-0.0023548327555047376,-0.0019351088282227866,0.0007399504940845289,0.001324181076687252,-0.0013723200528094539,-0.002031588510881691,0.0022148427573450693,0.000769072252290366,-0.0005298446762037704,0.00013067818058329532,-0.002047230425577687,0.0035131058240096954,-0.0011632829076727595,0.0016261654569754253,0.00033885487856929916,1.3233336337692156e-05,-0.003884206392055621
0.0018701986481804828,-0.001564277598432812,0.00022914009306880176,-0.0024974818719457935,0.0011971280777776866,-0.0015704447154265954,0.002025032381763756,0.002784661600577479,0.000662257186169471,-0.0016447812380656404,-0.0031542510102880034,-0.00024328705122185853,-0.001673972796203271,0.002876808612972042,0.0028339269496297265,-1.4634191864053383e-05,0.0007857036048781442,0.00038603996243651863,0.003834613730074262
0.002155554594765934,0.0015820272913574043,0.0020582742320047038,-0.004089206670703167,-0.0015396986927736893,-0.0008471942393408396,-0.0012887488888577608,0.0023097501171453236,-0.0013401223206514438,-0.001782522913481296,-0.005405555730350404,-0.0024744433894287603,0.0016953918099185809,-0.0017735519294309493,-0.0031954602754222998,-0.0021414607818111457,-0.0020005522852562167,-0.0011749113467578534,0.003967651394623764
0.002447200319705231,0.003387787714877667,0.00032695878631306807,-0.00024707344298399985,0.0003519077720917911,0.000757022069875551,0.00386760652099077,-8.663776923871804e-05,0.0037290160794633135,0.00014743162023016522,0.0009530528092506718,0.0022359186753062006,-0.0017998287724434168,0.002885806439225825,-0.0018139360543290566,0.001972997410935739,-0.0042977259482164356,0.0009484575923877609,0.0037013228478001516
-0.0002747994195290284,-0.001633339881828344,0.0005931050215926496,0.0025617124736661253,-0.002444427689683111,-0.0008956677686738151,-0.002211790324896419,-0.000964414010263762,-0.0007071539310416046,-0.002295043400922356,0.0015917864022918365,-0.0008084961106181447,-0.0007340644084265491,-0.003717298662995513,0.003690951621601175,-0.0031883552323934473,-0.0015123588250826301,-0.000582132103083817,0.0032210198919491594
-0.00013461660593221554,-0.0007456223073552122,0.001010201095085853,0.0019438573915320882,-0.0005231599089868496,-0.0006207692096179073,-0.0015621512317021081,-0.0006061067055969033,-0.002676277570781174,0.0013967234382398182,-0.0006928219304994529,-0.0009356895659974577,0.0013598438695339142,0.0005661743895221485,9.213658097606413e-06,-0.0015393600980894402,0.0014494214589934379,3.193066550067699e-05,-0.0014559351044973006
0.0021756883027244586,0.0017103128383148063,-0.0017917917056415637,-0.0017476788622477293,0.001671991905840134,-0.0014430679358485039,-0.0003259098390783826,-0.0013016625142545785,0.004761690020651967,-0.001167982278092461,-0.0005678687565909274,0.003390384753529973,-0.00023533308886979458,0.0008546529069966372,-0.0026267824582673436,0.00046127650786800817,-0.0009090073240101587,-0.003129893432130747,-0.0013323203817834348
2.0640620407417405e-05,-0.0008045399739204884,-0.003268522845446257,0.0007959711635640418,-0.0004312557458903573,-2.244821731497905e-05,0.0012598730909315417,0.001389424488595628,0.003125047012872344,-0.0004497010272142376,-0.008127986053278172,0.0024988093730361253,9.499696528046253e-05,0.0012578448796711607,-0.0008631738265917178,0.0033057892378868794,0.0003022372632311501,-0.001021887731653559,0.0012521906562367217
0.002773748184324451,-0.0007943646862362647,-0.0001261140958465911,0.003486232176991925,0.002957758373783841,0.0012298989778059674,0.0005717261583872107,0.0011068137749010516,0.0009148639349195799,-0.0023904984834804376,0.0007660424884009777,-0.0007654465924031399,-0.00025575354419565143,0.0018784751159787152,-0.0016331481804871734,0.0036482316787106775,0.0005954185157045864,0.0016005342307621694,0.0012749841538171696
-0.0013356235974046793,-0.0005244822128564487,5.762227343021482e-05,-0.002027246075342212,0.0024682232172915553,-0.004504658866597051,-0.0012494304986758625,-0.0005570053094241883,0.0017366343233811525,-0.006818951429648781,0.0012096087445562765,2.7786080036638403e-05,0.0017692620718249231,-0.0009196836049781386,0.0016714407999888845,0.0043145832674625914,0.0008625788854825858,0.0010284709502415843,-0.0016575090510826114
-0.00010473855221673551,-0.0028675595367090314,-0.0014873557468816439,0.0016742439863451418,0.0006490306034981554,0.0012418621117362702,0.003145574459863417,0.002390804222100731,0.0020852068567988363,-0.0005528284823814063,-0.00033932512176938637,-0.0006677938417106324,-0.0005002753842409108,-0.0033026079075114977,0.0016861095960188147,-0.002977732749149998,-9.101187665010169e-05,-0.0008228253842427557,-0.001031725358050343
0.0016563343758563974,0.0034992837816487706,-0.0004415898662551943,-0.001444085678994358,0.00029555682820741247,0.00046404646910500535,-0.0024489241868803804,0.0004219342378218832,-0.0019509745770466386,0.002505642765573284,0.0006107777190651392,-0.0013689686089824985,-0.0013028355683597527,0.00521067138780324,0.00036477274073573547,0.00020269990643042408,-0.0007248137326967669,0.00014368127266439922,0.002516735941505301
-0.0014139704238513952,0.0010662509629240033,0.00024598099951403737,0.0008877291967052019,-0.00030525642439403457,0.000571246606844314,-0.002981935713778513,0.0010884795647583565,0.0016258416946500916,-6.207814971762046e-05,0.0005119015318146999,-0.0032946980086668498,-0.00011104714867928267,0.0034780957107466786,-0.0030013394375621935,-0.003708623517730643,-0.0031248121473784213,-0.0011239811643728988,8.076264965662771e-05
-0.0016471649164737858,0.001562943038119784,0.0007521845795058858,0.0003711140628914976,0.0020570705572914723,-0.0009750130224827857,0.0007858225325597147,-0.0025802342347459083,-0.0003340402821107085,0.00200259706172222,-0.0016222022266552615,-0.0001256048933100621,0.0022988258671036814,0.002252820454666466,0.0023011279872267574,-0.0009428512526491968,-0.0004441939772660897,-0.0023997790028269174,-0.004170366332064436
-0.0004955772618868986,-0.00043394712258615516,0.0010339273467326155,0.002401817285852789,0.0007130760903364026,0.0006099883451579084,-5.4072364966875366e-05,-0.0026247985480616466,-0.0009523872785675247,0.0014790513443955692,-0.004212977913295749,-0.002412537945412685,0.0018343585413327789,-0.0001839146189049077,-0.00021462913556600456,-0.0005822798924961103,-0.0009002913219843749,0.002033925663359767,-0.0005972886674375224
0.002071997072156212,-0.00035906631534228186,-0.0011692754252000449,-0.00013163946621458424,-0.0007813735267901292,-0.0010672106002404108,-0.0027202654310205876,-0.0019331682812038487,-0.0007090683453657328,0.0033450357396161284,-0.0008420263577270931,-0.0037900207518596534,-0.0017631092907039745,0.0020514650968790718,-0.0012947489034541983,0.0018315473913952298,-5.1600469661498915e-05,-0.0024976053142612216,-0.0029991637337376913
0.00018532205568900267,-0.0029920228790912243,-0.0008927581126067901,-0.002166977090873213,0.001787671232283187,0.000986094868742747,0.0017476768385362449,0.000290587406400104,0.0012401886116166039,0.001107845084392,0.003391061119758605,0.0032988119586661183,-8.104186344286889e-05,-0.0020680867111019683,-0.0002135911472527914,-0.0002169953763174977,0.0009133780120356042,-0.00015277897173637532,0.00012735388367997902
-0.002721578758819595,-0.003062386824630675,-0.0016142760403070567,-0.00012128338131528872,0.0029794893302651877,-0.0013901122743896416,0.00024376973440153022,0.0005457411681698398,0.0006240007949629048,-0.003240397477871561,0.0010806469071833816,-0.0006353123276109335,-0.00200010503218286,-0.0019483161855656983,-0.003686946451427824,4.38046724098058e-05,0.002525402631875693,-0.001757504653832609,-0.00176912369779535
-0.004472592972152176,-0.0024781193641165954,-0.0019372211139678202,-0.0008405359848730571,0.001450604265663102,-0.0012521165981458499,0.0005232944639064378,0.0035893509395774352,-0.0014757566600919604,0.0006713746234778433,-0.0009240346843476485,0.0025797107857872216,0.00024209723368225525,-0.00016978359221912016,-0.0030690731403180474,0.00099963865951273,-0.0013477166287480685,0.0011283701064392685,0.0008163958204950078
0.0017469122294799713,0.001844351364626555,-0.0023285309525089694,0.0010159339400617668,-0.0011622667708386196,-6.837209456085809e-05,-0.0007635724891225378,-0.0007773181649273018,-0.0006221800721065165,-0.0015329102205435684,-0.0030779996682838316,-0.003761530672756991,-0.0004490961691990934,-0.0009194608612575758,-0.0037962973327924313,0.0009561846589260656,0.0033140466583205584,-0.0032779255797975803,0.0012554589599931547
-0.0026740982130523602,-0.0001887379161137015,0.0002746308810481573,0.0016371615918233092,-0.0016809976399996891,-0.0015774452380645956,0.001834232510045197,0.0007234573312322337,0.0005545599569339415,-0.002264531193832387,-0.00045169375145458023,0.0027702946679993103,0.001056889099550196,-0.0038625795596112207,0.00022132197183782443,-0.00020250112278445497,-5.233632971995209e-05,-0.0005278608433816232,-0.0010049027749536273
-0.0010973849253693773,-0.002115102240990198,-0.001296965886096738,-0.0012091577397127067,-0.0011077844818680237,0.0011675196712572665,0.001671144243816568,0.0012921507224851509,-0.00046304521890810744,-0.0012467231653254995,0.004294034459837013,0.0017505772810466696,0.004854941971958443,-0.0003363182858040884,-0.001785391649611563,0.0009249908298617609,-0.0002750799992819511,-0.0009974972996287183,-0.0010719598236205027
-0.004196627937164948,0.00417761807791004,0.00047349490043423583,0.0014782723119940529,0.00288209448454397,0.004585435911083829,-0.0020658776211328186,-0.0020759557596999106,-0.0011884859953685677,-0.0032715420848790566,-0.0011180114925765329,-0.00491490633250341,0.00030220655388308763,-5.171931873477172e-05,-0.0029962944555534635,0.0004923639625067803,0.0002499359754174216,0.00016236983066747663,0.0046059027370594415
0.0013508259456580223,-0.0017745693434870762,0.0004485867074135722,0.0015951872205216837,-0.0032941161345471136,-0.0026788478273316748,0.0015247600025666374,-0.0004248810745784833,3.9485694674532096e-05,-0.001266036414394852,-0.0005061107617396441,-0.004631166053624437,0.0033683004811887723,-0.002227882102617837,-0.0018549982781893106,0.0019367249670934061,-0.00021051681074751576,0.002229465925413024,-0.00031060076322201333
0.0004542354632872952,0.0014094956196599882,-0.0013396253190435473,0.002352558386544527,-0.0039596864057865454,-3.461207927033319e-05,-0.00013806272057212282,-0.0015401943985759985,3.920262620562509e-05,0.002692950337923983,-0.0017964404429982326,-0.00010457048265237999,0.003660053756348414,-0.0007644598874085423,6.213707505429999e-05,-0.0022573324036627676,-0.0017553216650419976,0.0012143803047129811,-0.0037542808319572154
-0.0005376785309507072,0.001209187132206382,-0.00014870941624359557,-0.0007785983028962642,-0.0038133784979579627,0.0017707367368434489,-0.00027362826402346904,-0.001900727729758849,0.0010524425995013752,0.001817237356267828,-0.0011257032540304792,-0.004106655590395205,5.15287800403623e-06,0.002210893690482664,0.0013767919200563209,-0.0016296648344898566,0.002272992168567227,0.0016840168719938744,-0.0017464801458408669
-0.0021231767932506466,-0.0031001319067305564,0.0006479666060106908,-0.0023101129211273714,-0.0014477591721918416,7.668079528737162e-05,-0.002130504117478777,-0.002701726998797506,0.0007879070949950703,0.00044629112952305973,-0.001276893968661985,-0.0016533307126056448,0.003442866185295281,-0.0021977982181667272,0.0010820421627988914,0.0006405662442411034,0.0013573283233342043,-0.0024711867978604446,-0.002796010589907815
0.0011590150658034447,0.000918527779816506,-0.00200223414177436,0.003430896193164605,-0.0020572982037556017,0.000271330889052598,0.0012539033671692614,-0.0010017644000050825,0.000678152217933365,-0.001682702398787125,-0.0009630339298394753,-0.0011640807436266787,0.0038461932004762514,0.0017767934545054984,0.0013448746345895962,0.0034214479206020453,0.0005311599711239925,0.0018895483711718413,-0.0022801372647500975
-0.000963120051691434,-0.0037961330653141453,0.00034492055010083123,0.0012004336634546114,-0.0006787233421166724,0.0018792373619634477,0.0039844823406255435,0.0028632412057607035,-0.005453281634983618,-0.005433392679896911,0.0011093098031506807,-8.118158627825039e-05,0.0006973306934034292,0.0003414411714781506,0.0020928441978546337,-0.00040317397399208696,0.000894390336087957,8.77200569618636e-05,-0.0006241047178331317
-0.004795712060177968,-0.0009286944032010297,-0.0002871826159109927,-0.0015648976375233993,0.0006011962509844806,-0.0003468531074415625,-0.0011320524677828684,-0.0004925779279329659,0.0033205959208520357,-0.0022252943057903436,0.00015181367870810246,-0.004147871435469385,-0.002044511696521472,0.00140059180967895,0.004163697663013155,-0.003406674845568672,0.0015484822514173573,-0.0003276650153483543,0.0011532640221558932
-0.0029817422149977443,0.0020832367940804577,-0.0032867110633732497,0.0047991695333766075,2.858357902690693e-05,-0.0015531386020856898,-0.0019685322081708094,0.002666384163468171,0.0010333339015064014,0.0018113875035724485,-0.001230620695745078,0.0008853819053905677,0.0024940341361808084,-0.0019020298610452826,0.0037110968692488006,0.0004490042398399218,8.464465977980956e-05,0.0009819060039533722,-0.0016672801254530483
-0.004398015595772593,0.0018738157190688214,0.002996749011941823,-0.0018259321063904355,0.0016606622965913468,-0.002486927024977235,0.0014372304692154773,0.000589416575206687,-0.00039055046447936803,0.0038774435215313857,0.0009978793133166533,0.0012403445740804186,-0.003462626906830136,0.0016471599152422735,-0.0031652115098338546,0.0003326852131430336,0.002728850109158027,-0.003768996254921249,0.00153011858003689
-0.0011881068371151974,-0.0015591045508655229,0.0017810458104964074,-0.001103051286030916,0.001935601364932942,0.000246376286031048,0.002203993618049648,-0.0037516149862820937,0.0013657019582230616,0.0034469803385552946,0.0024099758549297992,0.0016592959821833003,0.0013456699569483368,-0.0010386477759613863,-0.0004883235362162005,-0.002556208941485283,0.00011142017303631741,0.00034597165567672015,-0.0020600149769504856
0.0013904209086561716,-0.0010296997615316676,-0.0024180117016345446,0.000212830502063744,-0.0007062485653512659,-0.0032272682668232785,-0.0006749042116787748,0.0022079158549536864,0.0003937787848269003,-0.0004764760003914638,-0.0012247360160999228,-1.9708244082648375e-05,-0.0009306127740048624,0.0004883436725840844,-0.0015378454396075731,-0.002008745977019385,0.0029712243719097068,0.00014815516738333147,0.0014301420505116206
-0.0016257945045164187,0.000562442365498749,0.0009250537811175364,0.0008965450933181305,-0.0025519258437003275,-0.00206721546679499,-0.0030819640376889544,0.002586308842006999,0.0012360718250064631,-0.00018712130474864865,-3.1369154246030415e-05,-0.0019287566194773269,0.0031825852610606496,0.004738323551689931,0.0028280440574813344,0.00036316613328028514,-0.00029390074390304175,0.00045066219012407756,0.0006889044522309781
0.0009457242147809749,0.000911316453931322,0.0016852345581125888,-0.0017360919143800495,-0.003107351229889977,0.0022511202093468785,0.0004411594349886783,-0.0001158069376635068,0.0006277754053052194,0.003405123902032498,0.0014137122605377903,-0.004708224053016884,-0.0022870807121820164,0.0006629266735187558,-0.0042790597521459705,0.0022801727380180733,-0.0016028297157933808,0.00223310808202847,-0.00041788658562875075
0.0022344416170043953,-0.0021889820777179635,0.0009061911830697475,-0.0017854815319903962,0.003271051110729624,0.001987410971108022,-0.0017863232780979768,0.0012103270653243388,-0.00046531204124683435,-0.0005080306611488771,-0.001823808901196015,-0.0017537562628156152,0.0017017997992185255,0.0030455712065244143,-0.0018255632063227344,0.0011993246097693722,-0.001365275582598592,-0.0012847078578810042,-0.0012451370192216682
-0.0012152444414842895,0.0019136437969947638,-0.0014620430219676097,0.0016051796206581173,-0.0011143848928051143,-0.001575871329621939,0.0009949393329086926,0.0007732022885320591,-0.0010555587484622534,0.0013329292376261525,-0.0016928612437317966,0.002102756392308592,-0.0009796953259778786,-0.002560807854137332,-0.0019126190406753446,-0.0007816001620967463,0.000376281720720456,-0.00028200285651211953,8.317320650933112e-05
7.794220066087856e-05,-0.002090656290976046,9.648475418683758e-05,-0.0016080695540023273,-0.0002036168193663089,0.0027687574006340664,0.0029479652429754825,0.0012451805505992385,0.0002335584939113495,0.0035976052253125054,-0.004857689225463377,0.0002542369956873074,-0.0023230778262262226,0.0007736558984831992,-0.0003351109597542049,0.0019243711188850687,0.00011318911646909984,0.0017416290056700477,-0.0021851480538968154
0.0014701583453537743,0.000221236427926943,0.00010912248690319481,-0.004441048992613721,0.0003628278624564146,0.005538070250262114,-0.00042542523711105334,-0.0019812361680465345,0.00013889730426423574,0.0012425475649456804,0.0032862009438314453,-0.00017874909801118843,-0.0003343496210881802,-0.0017977955868379283,-0.0016951575730974227,0.0003583267230392248,0.0016982973827441169,0.00292968883583473,0.0037142769024122455
0.0006308039291196058,0.0008678239115483996,0.004345202775570357,0.0018113394311693955,-0.005363188650297843,-0.002756305366211079,-0.004215489322581591,0.0004958580843088026,-0.002129829937058159,-0.001012607546560321,-0.002773587849588797,0.00038531362560729793,0.00017930207975729238,-0.0036720183167521787,-0.0022110912512494233,-0.0009721229603338713,0.0023405669812192266,-0.0007529269497223999,0.003238435631633941
-0.002057265989976467,-0.0001871341697304785,0.0014595421806772116,-0.0027235430626190347,-0.0004929004404808715,0.0016536056994786916,0.0019907448128714473,-0.00012706254151746468,0.002431812798629821,-0.001190922975670618,-0.0007237292234533111,-0.002156691322057042,-0.0022364896482571684,-0.00048559597472304714,-0.001580415820258696,-0.00020723009578872752,0.0005350107082190698,-2.1652904831244214e-05,0.0030919329079125467
0.0006719060840797948,-0.0033647705603471914,0.000643527944182504,-0.001224300555149945,-0.0015140525695249846,-0.0007114229973605163,-0.002073559182847164,-0.003759561036188939,-0.00012568323743500137,0.00018644899604778345,0.0004404627831368594,0.0002049620136982914,0.001944503396819376,-0.00013612580199757904,-0.002444865677485652,0.0010938519219875044,-0.001428464132370016,0.000683783617891852,0.00045057517512971535
5.978839191664065e-05,0.002897586156898988,0.0003074797124323446,0.0003853560044527175,0.004036937075902024,-0.0005670650667246135,-0.0019434215381505587,-0.0011056199818163565,0.0002645930983696658,-0.00014149340299712517,-0.006579271864557355,0.0036149797658649304,-0.0017763314414609732,-0.004907901209913345,-0.0015760934720004205,-4.326489415325561e-05,0.004280829643477377,0.0006666545492830275,0.0012568847198423246
0.0007229238503208787,0.0007828539412688621,5.6863668384848345e-06,0.0019570476771605463,0.00021332952717942677,-0.0005617476334617833,4.403832055861833e-05,0.0021407490033663688,-0.004066031994451853,0.002587704740367643,-0.0016832365891832474,0.0014391868962158575,0.0027360826497864286,-0.001654897159373672,0.001905681319220316,0.0008179439521156585,0.0016915696560108409,0.0009316367767175532,-0.001587800537047509
-0.0001211994235636824,-0.0011026030371947958,-0.002431128299761802,-0.0007336326311991834,-0.0006516613279965031,-0.0012008526272025964,0.0009787016748770863,-0.002817451615936038,8.823333030624627e-05,0.004057151097387683,0.001012758948012623,-0.00036576880226320486,0.0015430777372192677,-0.0009626541734860955,-0.0011164654562874612,-0.0020701848084144847,-0.0006409906922556272,-0.0012998945133903773,-0.00015891258040567647
0.0009362709800043124,-0.000357068919286407,0.002121809484301111,0.00316231202191514,0.0003515650936114919,0.0016647806976212776,-0.003214470684930002,0.0013509841585996347,-0.0017349708590748442,0.0028358962368369984,0.0006952707022751443,0.002820618539305103,-0.0002141068627107705,0.0012349033480039862,-1.3376476805781939e-05,-0.0014263818200058367,-0.0001164173632776826,7.523537244919351e-05,-0.00047045396221574005
-0.0001605133746683392,-0.003058483151722541,0.001554005719608749,0.004596854371753043,-0.0029020016124130677,0.0037200522370386484,-0.003065485895775996,0.0014916059971036503,-0.0034959861773475294,-0.0040085791497791986,-0.0010694906226489805,-0.0035279109270532055,0.0021664459348671398,-0.001146000573679337,-0.0018825650722266967,-0.000294735406117968,0.0014365731816562185,0.00023533869635377234,-0.0018599295884342063
-0.0018207994929229504,-0.00041507177916310934,-0.0005789684684848712,0.0003194362419767473,0.0014420876766992458,-0.0026806539707728504,0.0029003057694782014,-0.0008726237368547301,-0.002466637690776656,-0.0023659835988561993,0.003430625357770493,0.00027667006502424485,-0.001501719014043646,0.0017944977834094922,2.776046272153049e-05,-0.0036139605723024084,-0.000552247029291195,0.0009670468012223264,0.0002869288631233518
-0.002087596898127047,0.0003610273395945969,0.00199294659135486,-0.0007426466492697026,0.0013367365371913023,-0.002662503479672925,0.0005262311108625371,-0.002598849824116017,-0.00021957466805178064,0.0011918228064384485,-0.0019082416696394005,-0.002596758933601524,0.003296935847469114,-0.00183814540024044,-0.00011514922728864005,-0.001051640228571901,0.00010343487782008078,0.005486687071629592,0.0023713229950297313
-0.002702905354104927,0.0005494476514684464,0.00032519617569187927,0.003431059340857144,-0.0018403162203116624,0.0035883684384405536,-0.002467682121862194,0.0009087625109628385,-0.0019424161664549587,0.0018653518022129017,0.0029307515030004066,0.0012738376418997559,-0.0027162351461864974,0.0005571263560658421,0.0008923371801196228,7.478339233966552e-05,0.0005204640221682516,-0.0007705453825699064,-0.0022882342735557177
0.003029790620192471,-0.0006081418972600417,0.0010633680663746715,-0.002197621397404847,-0.0007071286942502493,-0.0010805082350905646,0.0009544164700121253,-0.0016517897892147006,0.003911748248616575,-0.004434967852601573,-0.0034647157306230787,0.0002940206981074292,0.0019452801937783508,0.0018408747667153747,0.003461310439733309,0.0015939739841682606,0.00035517802285143607,-0.0016195723650909326,-0.004389314593018849
0.0027385926771474954,-0.0023980344150156276,-0.002327076229267968,-0.0001015753192527994,-0.0006089242090870147,0.0007626875323114931,0.0015574381820363452,0.005522826822967802,-0.002777892880315354,0.0008596466519217972,0.0017106428715212589,0.0009676346632291129,-0.0014899993228359694,-0.0025250431565092607,-0.0005304459710898013,0.002296137459135404,-1.2167780057239518e-05,-0.002154483730483116,0.001264973522958964
-0.0006685078488957168,-0.0027406862978112795,-0.0011496613970017745,-0.0031855407558054323,-0.0022591082139989923,-0.0007525832813676111,0.0001664881683408082,-0.006081012622388333,0.0018813373792908547,-0.0017623975796643133,0.002524743054947179,-0.00014658124075976552,0.00015274767655839943,-0.0018702310560544905,-0.0012956460461992316,-0.0019956271001392717,-0.0001345458176864774,-6.412324325685006e-05,0.0003233111173960849
0.0015147163915764123,0.000523812691158186,0.005371141017880127,0.0002052269217840398,0.0007698137531147717,0.0009355034639218184,-0.0013030134469605643,0.0008446935638346887,-0.0007305154815172439,0.0007051351812760562,0.004650589211659741,0.0010523385869633888,-0.0018562124191067635,-0.00020164879291325078,0.00015105110579365032,-0.0008129186593203051,0.00015302276498330362,-0.003188264971133739,-0.0003862676993407932
0.0004977609184809049,-0.0008799943019396318,-0.002581143694770815,-0.003742222349770221,0.003025974371286107,0.0016177336249019458,-0.002306248702693185,0.002135028231986261,0.0016039880082859162,-0.0031340773830042324,0.0028553291758786374,0.0007673427296656561,-0.0011854422247429305,-0.0010339559901645296,-0.000974551306270421,-0.0004994422493593939,0.0010179350644579986,0.0020865163436514524,0.0008863223874284871
-0.0010950406176212287,-0.000509070605085381,0.0011084749758757918,-0.0016412744169586283,-0.000803387738125497,0.002580464602488588,0.0038751789081672714,-0.000962589196677358,0.000917357703287907,0.0010308275972678383,-0.002690176513463268,8.745684953276756e-05,-0.003680290040578732,-0.00042777674719448233,0.003019898334985643,-5.2867907904203804e-05,-0.0012030351311822986,0.0014771077756428174,0.0010199971216824253
-0.00308208031472514,0.002237588002371118,0.001600657132115046,0.0017583907941675192,0.0035267850148107947,-0.0029381705250360432,0.0031040722219797512,-0.002054835598537127,-0.0036061426645489112,0.001994344205812186,0.000993443773208818,0.0006947242714844266,-0.006201072684238419,-0.00024810940006366426,7.275397057846885e-06,-0.00019679316012557657,-0.00011724260001015864,0.000919270641971184,-0.00023078485089848063
0.0017106726224684502,0.0012458490928347256,-0.0010766298318127389,-0.0040150412800861995,-0.0003467318383314896,0.0013708669692161063,0.0007130529414850311,-0.004164547180894112,0.0005500794273441406,-0.001520823088896446,0.001767530943768894,-0.0012123047959464756,-0.0043573303364216505,-0.0019143718101204052,0.0008290987983006948,0.0018013434507170038,0.0017035320209801434,0.0005111770288495829,-4.4339395529654477e-05
0.0018604669399982599,0.0035094612021942273,-0.003485441946059054,0.0011033416790143964,-0.003139810142528798,-0.0018205511695139045,0.00015517310812346175,5.813577212574799e-05,0.00048802885138449876,0.0020154123469286567,-0.00028499384250400676,-0.004430486373928957,0.004062628603900178,9.78373482518892e-05,0.001800791491447406,0.00038900815849971155,0.0038845317437358304,-0.002821779285702961,-0.0012615242607680406
0.00038262318463871297,-0.0007093887821070961,-0.002024641079158013,0.005103186786344688,-0.0023574818652746504,-0.002407812162073631,0.0011090861071266834,-0.0007052840206343076,0.0013477106104728056,-0.0019187460438308687,-0.003022237350993856,-0.001423238234810698,0.002930173733065391,-0.0006925883214469502,-0.0003633868741492814,0.0007212100490003676,-0.0007403958357192608,-0.00043007884592246963,-0.0031839015463652233
0.0016368496107103897,-0.0006730660830294997,-0.003160704805829332,0.002037577561016222,-0.0048514102318312985,-0.0003422836150525385,-0.002810624730424718,-0.002404415843610151,0.0010300011378008738,-0.001810909243964086,-0.0005897483848021275,0.0016727256033506786,0.005260829490817775,-0.0006209577739478479,2.649543118931591e-05,0.005723803442237719,0.0025432575530467826,0.0008007028755521597,-0.0034973316638207226
-0.0007478309782388908,-0.0008247558724601979,0.000611419301327904,0.000637110172396512,-0.002673046992631102,0.000628799451740764,0.000235067784147602,0.0008065177686068128,-0.0016651342214475933,0.001538213771149379,-0.0011233478457961794,-0.0013167747283876702,0.00023481490935889154,0.0014254011139123101,-0.0001892929947676678,0.0018487567581591308,0.0020442036897540122,0.0017187626428287796,0.002532005946133899
0.0006933072329689682,0.003827859264819561,0.0027052454664776913,-0.003496581109543641,0.002857042805026169,0.0024194343883417457,0.0006118060727363739,-0.0006535253239687906,0.00039560036796054926,-0.0009122459041242649,0.0007072696883279066,-0.0014179358097378613,-0.0014438943407468884,-0.0009274632052459893,-0.004421949714294443,-0.0004858803194795542,0.0029167956978064105,0.004282076997592932,0.001447698348243065
0.003339366309982899,-1.9427976707184598e-05,-0.002274745406578635,0.0010345924179604522,-3.427586274773499e-05,0.0006964489091445009,-0.00013636120218419185,-0.003931023591577793,-0.0014639937221023734,-0.0019895180158214618,-0.0006183874522214375,-0.003288974672768926,0.0011599587361179825,-0.000659408186773737,-0.0008325776473733156,-0.0007217924753276732,0.0023370228371876432,-0.005015679592931209,0.0007695068396374257
-0.0014010360399131078,-0.0016700733650328277,-0.0008623775928274593,0.000636238321979666,-0.00030253084425769063,0.0038094717878107433,0.0008923977580222467,0.004959774324917117,-0.0024543059824597485,-0.00029062816187864,-0.0003502989102784295,0.0002464828641760958,-0.004279492550434013,8.683431981128256e-05,0.0016908493974249013,0.00253750851122995,0.0004408631095536911,-0.0006563324443274247,-0.004684136830992268
0.0018223376752712073,-0.0007559528193231186,0.002448960123365689,0.0031360639146468723,-0.003116475283862795,0.0006546346949544593,0.0004462088593482723,0.00011956337484956532,-0.0003964552807209263,-0.0011014495483764465,0.0011856477916866034,0.0006111214310987388,0.0012143541631207144,0.00032979788015126134,-0.001685688503842577,0.00021435192889886795,0.002163817202324433,0.0005123904426454809,0.0016375237880446364
-0.0044589913270272966,0.00025226958887060663,0.0007019984355959538,-0.0011960789787798752,-0.0007369510159257188,0.002521764911850112,-0.00017339549826959474,-0.0009564917033753386,-0.003259022370526463,-0.0010977904729708816,0.003240363310794284,-0.00036997579051690544,-0.0017956016365346904,0.001124020304641808,-0.0013354092877494862,0.0027746875774840754,7.098073219519799e-05,0.0009650584896879225,0.001338701969926772
-4.425128264293647e-05,0.0018360773840159785,-0.0012600838199007024,0.0024499703466218936,-0.004931296323353837,0.0003526355275671718,0.0019892793588338607,-0.002305342953170355,0.0014846276487697262,-0.0009029108691852955,0.001539545141901473,-0.000629815447709281,0.0021792591443281187,-0.00013404934310958893,0.001444367314725711,0.0015928504321439088,0.0016472620639805112,0.0014716968037327817,-0.0010022058219521998
0.0006635226458696534,-0.0005820144692246326,-0.003411693696939424,-0.001632485682438708,-0.0012222167977509798,0.000424478407767042,0.002107926930273539,-0.0012985012954335811,0.00266135316032588,-0.00045092102803813325,-0.001713900349200201,0.0026677929420384863,-0.0026631655062079027,0.002362682737503077,0.00017948921421345385,-0.0012447224775404815,-0.0011070291519492685,9.637014342151752e-06,-0.0021104816734232625
-0.0010160113909502434,0.0031105839890303868,-0.0008752699897443411,-0.0034440046176669142,-0.002518850815606128,-0.00035517906526003464,0.001640410013345922,-0.00017290814266684136,-0.0014507586149663885,-0.0002571140502244397,0.0013856220168174858,-0.0005274835865589658,0.0004524302390358307,-0.0008391173626102177,-0.0015929321716727882,-0.0020228943010225727,-0.00214374583666823,-0.001136450824487203,-0.0008452680785616873
0.0001409601409381601,0.0007999793804413187,-0.0024578403175270734,-0.0021546179864919872,-0.001819190195355356,0.002119697531150082,0.001132789648642065,-0.0002122620425408704,0.001339480267854832,0.00040151473303313463,-0.0034109955864410502,0.002221441707583872,-0.001081834150193389,0.0029175107263172393,2.278119661418486e-05,0.001035316055861313,0.0007298696903806046,0.0026959334127207918,0.0006455239145840962
-0.00176138330586737,-0.0014427159735722593,-0.0032044354726528538,-0.0007378569388176075,0.0035785518191934896,-0.0017722335099710808,-9.623382003215522e-05,0.002378193075842666,0.002835442886710346,-0.0020019039029025004,-0.0001399847491999185,-0.0013657272010269472,0.0017231212024557616,-0.0021295269811159776,-0.0003339233463785682,0.001658604242842652,-0.0005669485440189812,-0.00016173275162651294,0.001389809327404439
0.0011973866890337861,-0.001357999716090215,-0.002023405060110098,-0.0004752234354550733,0.0027169446057703365,-0.0008925982074734261,-0.00035378052633089,-0.004920409367838062,-0.001450964354995157,0.000998647740563793,-0.0022804502545234083,0.003217181962670606,0.003022223590331246,-0.002324222913959077,-0.0007218950798178303,0.005560098448229006,-0.0019207761289139033,0.0011658953246029195,0.0007079494170605924
-0.0018680847377779857,-0.00327733215828234,0.0026753062947149193,-0.0008736555656603189,0.00128471563435698,0.000626605334737599,-0.004096854200533245,-0.0012698560413133535,0.0005851169214928949,0.00042735385179333666,-0.002309419792464063,-0.0031607655663019717,-0.0014870355107641632,-0.002834627136146615,-0.00048491169477959267,-0.002143448169695551,-0.004417743006039899,-0.0016277111004305825,0.00028583072910954774
0.0021066823239852526,-0.0018876551857267949,-0.0005747006066454485,0.00036743882686902495,-0.0007372428728959967,0.0016465855935678465,-0.001319338710539588,0.002651057833426629,0.001749195835846797,-0.000804162187236675,0.0011688292485265378,0.000842394733799175,0.001995024920903194,0.0035435216127413143,0.004988336746991789,-0.0007691475588155244,-0.002188981586311672,-0.00024413524422486516,-0.001476820553813754
-0.0011132014015699711,0.0004868679311798143,-0.006535820640793017,-0.0018149421384238496,-0.0016264624135974685,0.001751035241476208,0.00328227564043221,-0.0012225094636173018,-0.0006413594595081459,-0.0032720758663022076,-7.380662672697647e-05,0.0023638679911310795,0.0007861576007248051,0.00033008461176788734,0.0011733055014979024,0.005132878848074927,-0.0024157074949409394,-0.0034222442895446106,0.002389867160117547
0.0011774808650323939,-0.003797508223492701,0.0013530638086611789,0.0009715297066313149,0.0022836825741071663,-0.0005254127975696427,-0.00026787278803214805,0.0021532504512294546,8.102896242892709e-05,0.0001847631062411059,0.0033085524090545174,0.0022024688997095403,0.001635856316091454,-0.004157382914167876,-0.0012474162981549032,-0.0003434920221901505,-0.0003871754649153019,0.0030871575850969454,-0.001087121662866097
-0.0023279178820972716,0.0006452792121455166,-0.0009674098949927141,0.0021143488315470698,-0.0009009671788143853,0.0009336838539861892,-0.00013670585735167412,-0.00030759102752378616,-0.0007485290697304724,0.0010109617792896112,0.0004340967561656205,0.0004930882773874528,0.0013485012344446343,0.001136972184344235,-0.00028574848094851956,-0.0015161303755749681,0.000652891268340392,-0.002338354833161357,0.0008651952244889578
0.00031395530482233766,0.0022288054205419827,0.0017063781989385693,0.0008158374130529171,-0.0004660776615597518,0.00015192584541969125,0.0029183233661571684,8.608212805391482e-05,-0.0018829817990601017,-0.0012662628548389347,0.0005086563830452399,0.0001148534696182887,-0.0002590708033288126,6.098632475589641e-05,-0.0004919804475927695,0.0010169363332326847,0.0012753235022728248,0.00145898824698037,0.0007161549461185513
-0.0011486548156189119,-0.0019801239688542528,-0.0008275768658966402,-0.00014232338587746992,9.930903570724533e-05,-0.003240065313670937,-0.0009625630054081574,-0.0020678548611920144,0.0037223550855812063,0.0015671708740850015,-0.0004597918354776924,-0.00023477376453568018,0.0006127985495716879,-0.0008461283524821099,-0.0029091921367177076,0.001213163744917091,0.002135021833782909,-0.001130519898201429,0.00027364015687899446
0.0003483898704848072,0.002386066376724671,0.0026714993144238814,0.0019478393902679003,-0.001379775245642149,-0.00023846270332839313,0.001420934709174407,-0.001647683209769374,-0.0018767687907903941,0.002109264546408936,0.0015498924374039702,-0.0021818564466223878,-0.0028397727540264575,0.0031254774741492474,-0.000370796922609091,0.0008746964458443417,0.001749401764279152,-0.0032364757356015458,0.002224595583013692
-0.0023447873376678014,0.0002586323730004512,0.0008890321643003611,-0.002409198757374393,0.0036170233591770393,-0.0022965811385478787,-0.000800835741617688,-0.0016335485242311262,0.0005486092923124312,-0.0010821988007389924,-0.0018463259770192487,-0.0014993480225587513,0.0010703361281996463,0.0007133619138080894,0.0008754513997821082,-0.0024568730055346323,-0.0005772300395279127,0.0004302783215259778,0.0004456197127684079
0.0006443083148432914,0.0005076443424473069,-0.0033883035455610886,0.001262513948818081,-0.0005718444072951501,0.0018411582195775335,-0.0011144164904407367,0.0009584476755806374,-0.0003424115102131479,0.0010726954989000793,0.0013132844968277656,9.152596699151583e-05,0.0009658809341898697,-0.000508988727160009,0.003769571345657276,-0.001420467404316526,-0.0004306572154140964,-0.0043733446865198,0.0018455506022718123
-0.00037098509444212545,-0.002110192910029754,-0.00027746894921702693,0.001497824516121526,0.0005969353108175462,0.0013271838975342243,0.0008011342549164565,-0.002226661076080856,-0.003728052831523707,-0.0010210878694505649,0.004186400638967996,0.000778172881888618,-0.0031091005802243873,-0.0005306722134707012,0.0008725135227549198,0.0021641708332399063,-0.002788036582244772,-0.002636779071613279,-0.0011858728087040353
-0.0030901031148038087,0.002025939834537709,-0.00019943881758668368,6.900239083315435e-05,-1.9732709434275533e-05,-0.0036600111907322806,0.001799890030160892,0.0036063235571927536,0.001237591885275871,-0.00108300121531196,0.0009676644181370636,0.0016597711108338822,-0.0009279428105984158,0.002585814630523271,-0.003969248767083928,0.0008610501084900219,-0.00239390507726985,0.0022394520939502806,-0.00011901255162666375
8.32038900628219e-05,-0.00015729963157767009,0.000618939384055893,4.965329410015742e-05,-0.004137095582163859,0.0035315323876967636,-0.00016008773561672257,-0.003027036199596677,0.002328639321881083,-0.0003597277557451978,-0.0036177497270994587,0.0006342956184155644,-0.00045547238719552174,0.0012082888121962363,0.001294709604064005,0.000992826765700342,0.0004847971842047844,-0.0028872118803293582,0.00022152810320910478
0.0023245179514060675,-0.004585284034258881,-0.001993681022558273,0.0002375685667119701,-0.0002677683835005402,0.0016606278059725149,-0.0020246936033694366,0.00023423334409999836,0.0004240414932008649,0.002442905218209033,-2.330203358869427e-05,0.00047115028137154215,-0.00018088819002345574,-0.00018059650409578938,-0.00015021984506746554,0.000683176629374388,0.000363492088347867,0.0019460088705351764,-0.0022959784687174647
0.0008480578530621237,0.002485240881041411,-0.0004686303601053175,0.0007648425170679237,0.0007356150767069789,0.0009382959227395245,0.002070965846763716,0.002498465308990393,0.00017133078792856896,0.0006589155532473986,-0.001953460014646777,-0.0006015509662566734,0.003544658593014991,0.0022628715170335207,0.003770929338897412,0.0009214965185007664,1.6321430200655554e-05,0.0003782110028164901,0.003094798643380385
0.00037735659141091083,0.000428605233567881,0.0006633470885102915,-0.002981420328488221,-0.0016054397011042393,-0.0016346614322963263,-0.0004648004292485143,0.002004904844286924,-0.0009203652729292941,0.003389576344719854,0.0003763571915605476,-0.0011266704957340122,-0.0025887742256099347,-0.0025545146832674326,0.0006591464266894263,0.0011046476261476013,-0.0015007586217648684,-0.0017552116038047957,-0.0025963649391041945
-0.002504529643138597,0.0013027830020013076,0.0005423468185942349,-0.0007948064997228315,-0.005402765769201515,0.0018840334842542962,0.00021773284333244012,0.002717694706571963,-0.0020083226056401035,0.0016459344687876252,5.600105706623611e-05,-0.0016946903907079042,0.0021044900985355466,-0.001960099466987002,-0.00019240048855233792,-0.0014924756034320197,-0.0019160791804688124,-0.0032290882927365964,-0.0009158318052928753
0.0025745675234636087,-0.0019101009303803481,-0.004085068616263508,0.0007691149865808683,0.003205156342371358,-0.0032588119154717456,0.0031780804573922124,-0.0024225269183135935,-0.0013139547127396707,0.0015766404425801531,0.001077645200974243,-0.000762353766513661,-0.006015626320489092,-0.0009248933033987592,-0.0006464549854561233,0.0022035265327724173,-0.00176073164726454,3.100606015070934e-05,0.0019064905620387658
-0.0007075893649333836,-0.0034990311851914647,-0.002728011932301437,0.003035070255613591,0.003435180484260199,0.0010939048791620701,0.001965634031883714,0.0008507860296395277,-0.0001505258270356022,0.002857892225458764,0.0008354034348876431,0.0001484690722052374,0.0027537320116927913,-0.0006443424369114508,0.0034593914190556153,0.000741912107207091,0.0015028918207843265,0.0009893953644249678,-0.0029942846601771623
-0.002801422097324908,-0.0025791719256363483,-1.0917964632557682e-05,-0.0006055880270448648,-0.0020153432281709285,-0.00012117749521192305,-0.002022285365726578,-0.0002829479201227953,-0.0009654513942732885,-0.0008983533238412705,0.00019867204365665723,0.0011929218546936145,0.0004606946769583272,-0.0032346765787172244,-0.003440703076979601,9.248127788952819e-05,-0.0013192340661860845,0.006684559077413339,0.002765035937059407
0.0021238508958021964,0.003335302327800216,-0.004050630729495069,-0.0013321266602128658,-0.0009524361106353511,0.0007594371197825452,-0.004436500971446848,-0.0004300758063914605,0.004981406082428726,0.0010365658634293661,0.0010988834341878096,0.0011067219910284843,-0.0009233935801349215,-0.0014717862168450884,0.0018966904009152946,0.0006182628861102845,-0.0014565297787862462,0.0038699945143379558,-0.0031797931508939833
0.006401810249630211,-0.002752726957752509,-0.00034337423010701067,-0.0015331541992356743,0.0013081392945419738,-0.0029392678702755163,-0.002881243331135561,-8.348064659530046e-05,-0.0008237032389853559,-0.0014656732199117306,0.0015932722967496185,-0.00018974289709999562,-0.003411542707229248,-0.003187505512174748,0.00010322114944142674,0.0028324399061550255,0.0041312204526342084,0.0014950354952195592,0.00010395251052019906
0.0025115245355013935,-0.0015694606123468691,-0.0012294080018095893,0.0030651982335540076,-0.0006032329932060026,-0.0014081731181608608,-0.0008958472126467008,-0.0011314799231434045,-0.0002511749218952725,-0.0004646536231564183,0.0013116229831545746,0.0002643029576846192,-0.0010461282967205658,-0.0018968139290242738,0.0026167811308826323,-0.0018698638922959134,0.0022824742848000217,0.0001793714800896406,-0.0007682069316794303
0.004863172481977168,0.0031150597067948304,0.0011231727128686417,0.0018090972559859338,0.00039560723493276874,-0.002086763098436633,-0.005034043645715754,0.002260389666097999,-0.0001598033334342296,-9.529437645486199e-05,-0.0048746238310325395,-0.002238295366277611,0.000539851715429534,-0.003240498858810213,0.0032323733534583093,0.0008941429890581952,-0.004093853991536916,-0.004309328887490705,-0.00019381526891060265
0.0005795448464960571,-0.003286918673029341,-0.0016505527695673018,0.0013389755552109938,-0.002291563411824219,0.0028425625566364248,0.0029713679383705834,-0.0009784397986613736,-0.0003288701139697151,0.001418725027494627,-0.0018287919469508944,-0.0039607682815001495,-0.003188088871806409,-0.00019544886799994403,-0.0020244726867566934,-3.921872481793175e-06,0.00022345907751279655,-0.0007715328669048034,0.0035433881858970688
-0.002678394834847797,-0.0008501086019135495,0.0012242005611102422,0.0007913919413131084,0.0027946764319685046,-0.002402735471995545,-0.0023529466376681235,0.0006917665471445386,-0.0017829196076817677,0.0003490456028855278,-0.001317456644870011,9.82286328666946e-05,0.003705644419791576,-0.0021524752649741265,0.0009702135478053265,-0.0013425758607614234,0.0012833590136191553,-0.0020572737692822027,-0.0003245804817019154
0.0005765560248346186,0.005128434596376707,0.0008221002297378023,0.001313447702330732,-0.0021482137774274683,-0.0024219633204997522,0.0021865074928270043,-0.00042660795713700693,0.0019215769717342438,0.0017841023383448895,-0.0017161706011986873,-0.000521216713785619,-0.0007533992210736188,-0.00045175585161935856,0.001201860101401108,-0.0038931683207626116,-0.0019610452180070783,0.0003483750392767578,0.0004444186536366533
-0.0008409477563900918,-0.0013441662283434166,-0.0021307776658241765,0.0002864914069025169,0.0004164282981344348,-0.0022399570348325677,-0.0005714268940678565,-0.00036778897137227225,0.004559611845229226,0.0007615819472480192,-0.001175936358297554,-0.002183683633919777,-0.00037439055840654366,-0.0006296388672296519,-0.0007234159231787894,-0.0006481632095334914,-0.0003709960275682739,0.0007859212590056113,-0.0012466412326348141
-0.0014920384174165523,0.0008499140246166634,-0.0021444043455997462,0.00035933838857602775,9.604646328154358e-05,0.0017690670783498987,0.00205458889697951,0.0023145409370933035,0.0018405550087299606,-0.002052153739096848,0.00016123824766183886,-0.002027834174685716,0.00024324056095747078,-0.0019605909080758887,-0.0015750408640462037,0.0010918807092083684,0.0009258090089151204,0.0004631442534124157,0.0007159792615430297
-0.0023259267495615303,-0.0017776329062433164,0.0010182072985115316,0.0024432022317517734,-0.002899043098718402,-0.0030904972370403,-0.0019525533530410743,0.002311469033894239,0.0036806093817026635,0.0008265276224482246,0.0017833061240763292,0.004141940410012419,0.00022606951967412312,0.001416519282474819,0.003541427206457153,-0.0010479450077735813,3.832675581683866e-06,0.0016751548154850541,0.0018837160717985353
-0.0016953262252227795,0.00028837776318198807,-1.238794229876633e-05,-0.0023283646857186493,0.004183696504729825,0.00028869937070994886,0.0024287719614349236,-0.0005100610749208268,-0.0009529768862652111,-0.00452958972043355,0.0010870355381153007,-0.0006217661297920957,-0.0002208006394574426,0.0016955047497591396,-0.00036671353625530113,-0.0005968026455216055,0.0006857246102742252,-0.004449772601827141,-0.00020291835410065354
0.0012844921024032687,-3.017589532356396e-05,0.00255938306969233,0.0014992301825739423,0.001147102459418284,0.0007397740337782337,0.0005921073341416614,-0.0007674732646940483,0.0017788672493550086,0.0013042001650970796,0.0021861139974498757,0.0021720087028937506,0.0003267173711427834,-0.0012900992718890476,-0.006077489804412953,-0.004015714895426606,0.0016083721193000543,0.0021183603298805436,0.0023264524989414005
-0.0001473279717163944,-0.0022572610671397174,0.000648993270191989,-0.0005755229527469545,-0.00044867554283181666,0.0007064175582139291,0.002858391561460476,-0.0008125412857994507,-0.0007426679652089135,0.005724084899916394,-6.211578843501907e-06,0.0002964252123795593,0.0007947689097786567,0.000836460255160148,-0.0031283296689191137,-0.00012900313878106326,0.0028015239261696173,0.003323993884788623,-0.0016879826432464355
0.0018806147107481646,0.0011693701296190647,-0.00012927646598907025,0.00215030586310307,-0.003486551495150609,-0.0017517248724973791,-0.003168879897740975,0.0006920489829684067,0.00010626733865215451,0.0011435015848352595,-0.001008183169415714,-0.002964541699259184,0.0013554330595012174,0.0016611357522884787,0.0021540326210904214,-0.0018346154023693273,0.0008891002851575085,-0.0024105482303026513,0.0024581535822815787
0.0012186829508674562,0.00021182289421404642,0.0028440439511625806,-0.001750667632837185,-0.0003724713900669349,-0.002369451604573838,-0.0010832078864866407,-0.0029227272564679406,7.875841866066272e-05,5.96310461488028e-05,0.0015401464685063536,-0.0004927319582901305,-0.0021259275301822173,0.001899107535952748,0.0005395253005908119,0.0010208328000931408,0.0036854161005718906,-0.0023343748500052838,0.0004884748869336536
0.001724955165106642,-0.00016766469996944359,0.002978455435098364,-0.00256659638923486,-0.0016486143677164763,-0.0006090935074724988,0.0009217660040288784,-0.0019312823693550623,-0.001515718373304685,0.0008859740556645395,0.00035380976924856704,2.740278744639378e-06,0.002002972715427683,0.0033732840805679475,0.0008008971155978355,0.0016420703507283385,-0.0015661663654029892,-0.0006275911990800451,0.0005265127426911341
7.618736817822847e-05,0.0012356844560351822,0.0025382176850729447,0.0006030789051524882,0.0008621903194784388,-0.0032567272157180906,0.001099141810968475,0.0013390600940274707,-0.00343758158718186,4.48109176330373e-05,-0.0013908951705119078,0.002398695905834639,0.0001517581965059899,-0.0012538075288515461,0.0010252935017099024,0.0010378863844514908,6.0860579348245644e-05,0.004716196007706394,0.00018143399748222588
-0.001794370515377253,-0.0032721819924107125,-0.00013314287511523293,-0.0018889120956065745,0.0011239893111770316,-0.0009422357921797009,-0.00016670059303956137,-0.0004570635615430294,-0.00017605994886723232,-0.0013968862719960392,-0.002550352164926452,-0.0024228109234275125,-0.001483122887902434,-0.0029365157333973092,-0.00024352918081089607,0.0006298285096079422,0.0008057077484252163,4.805881172853877e-05,0.0012911758555318458
-0.001741362938428691,0.0007566921284857997,-0.0005394641412567585,0.00038361406662339664,-0.003462390432991452,0.0018351147950031934,0.0011492762391321736,0.00038441576299278564,0.0014558946178902434,0.0035382141896553236,0.002627978375071159,-0.0026128087216461386,-0.001972903989005626,-0.0006459354938006914,0.0027363204511803084,0.0032553390738734905,0.004539299161570426,-0.0003458781012151222,0.0006192735917350503
0.0036284637649773117,-0.0026104445127689813,-0.003487716311917695,0.001501475228243273,-0.001974874252893859,0.0027235797100324376,0.002201799204154054,0.0023033575536172872,0.0029858921179472067,-0.002096670015465287,-0.00037696337930777276,-0.0008661320545832717,-0.003965861332451711,-0.0034495966782000093,0.004401542949848741,-0.0016399818922410655,0.0014899218610162593,0.0017010236994659408,0.003406508599835675
-0.0003125136541451558,0.0004227941572581823,-0.0019605759569577123,0.0027958075032446356,0.0005957092226879923,-0.0002119510731378505,-0.002085299146001994,-0.0013045680720392674,0.0016073070328164604,-0.0009155953752250553,0.001352741321438878,0.00010183627467671595,-0.001917731245738623,0.0016787619656117585,0.0008688208208059022,0.0034850022872225527,-0.0011072935780159336,0.0014548516353392227,-0.001032879727070238
0.0010744378599975909,-0.0003955770617963472,0.001348776923180317,-0.0013274043134502366,0.0002507841441017536,-0.0007273182368922945,0.0030900004034524627,-0.003732461682842367,-0.0007806560799531476,-0.0010736395936387247,-0.001461673029050966,0.0017137953289045884,-0.00029200175360981497,0.0037315481782560812,-0.0012099129094435075,0.00163512531659509,-0.004063138417260982,0.00036030215499049,-0.0011625772664350521
0.002875863320079549,-0.0019200078118417677,-0.0021939744730138672,-0.0025190361075773946,0.0004194780502081705,0.0014017131575220982,-0.005233864393324299,0.0029794963545838496,-0.0012883775854799057,-0.0009712361497706323,-0.0017156676042242717,-0.0022527557974307256,0.0005938394891731986,-0.001377389635834552,0.002799316525245695,-0.0014218367504972465,-0.006262158337044641,9.968066661308711e-05,-0.003964166492544651
0.0007602557049826941,0.0006522876419316293,-0.0006888144699486581,0.0008272180505845964,0.0014820861955001582,0.0009370263210480113,-0.0007826078521122407,-0.0008450588214249451,-0.005476604904932238,0.00029724668063327937,0.0018259354896536795,4.4192515216643e-05,0.0010044083152919547,-0.0026555368310302156,0.001843050681349624,0.0026673482763393984,-0.00027648230715279694,-0.0003251710566822528,0.0004084878503812283
-0.0010822769752161104,-0.0006434997688857877,-0.004060511407945892,-0.0005492102585429315,-0.0013245278905227907,0.0009200109803890168,9.728424955040856e-05,0.0008415808397739443,-0.0005064995787223991,0.0004782957318027462,0.0033005503916871087,-0.0016712684962301406,-0.0021006329062934178,0.0009875773001481864,-0.0009596662082855674,0.0013971095761843484,0.002095442785649808,0.0001236688594658953,-0.0020963024176922423
0.0022995789614274355,0.001436293390698228,-0.002074717707956291,-0.0022615385616266974,-0.0021289041978355735,-0.00021616562169972446,0.0035676085220145296,-0.0018148447159973746,0.00028263541537979755,0.0023550333735094975,-0.0004505393622119383,0.002816838631392424,0.002416769266238628,-0.004460182768436867,-0.002638222418977472,0.002578790989656073,-0.0004798574496186976,-0.0014808951927430382,-0.0017365704319544273
-0.0017774254854787082,-0.004788084436459749,0.0012643942221747984,0.0024532971524583967,0.000993920380304555,0.0011899818359915315,-3.218197202810107e-05,0.0011262617859457709,0.0024288010188595307,-0.0036427336509844773,-0.0017090393983345486,0.00042755636856947485,-0.001403967939148335,-0.0029939043959904452,0.001202214789978004,-0.00296789799295176,0.0012641667452529105,0.00019672484926642233,-0.0006937167082033044
0.0016783248140372856,0.0006932921614081405,-0.0018153941571836093,-0.0011829015663417206,0.0003599755533168577,0.0017249686682578073,-0.00210600800547232,0.0014102774789010498,-0.0019822386475124632,-0.0015861440749260008,-0.0019513631906858293,0.0030437379764359984,-0.001065730099259868,0.001652643686905455,-0.0007560461827241068,-0.001444870400836979,0.000701870223270065,0.0011738355241392702,0.0017807649417860543
0.001846513873933072,-0.0024356321283110784,0.0005962467329172971,0.0012128769218973472,-0.00045853741254509023,0.0018099241102118842,-0.0001257750831965745,-0.0007337078022678471,0.0030464833228946676,0.002865380839022964,0.004483768845388868,-0.0005063755850002922,-2.1185055035584597e-06,0.001253709584947538,-0.0008210087391651888,0.00027888765798373804,0.0004423384665172735,0.003432114018292778,-0.0005329486740546541
0.0024908213153073816,-0.002235668188043537,-0.00036486219935600634,-2.082712268303019e-05,-0.0038006238558019123,0.0034159302311186726,-0.0012939159135582155,0.0006133145036689308,-0.0016929104940194238,0.0011582479283424143,0.0004850554236453518,-0.00039872010678784336,0.003653008272095694,-0.0022973288151200617,-0.0011538267611736941,-0.0018965717538152829,0.003536055801056119,0.003031956255071348,-5.500863816929417e-05
-5.0779031998507925e-05,0.0016311057645919391,0.0016505387413470597,-0.0007408098360018543,-0.0017656297919289566,0.0004337822551407854,-0.0035836587608413088,-0.0007910901383751122,0.001148778943971814,-0.0024600265548345482,-0.0010672648133966032,0.0008271354545118846,-0.004238751956229809,-0.00016337573678228083,-0.00013313300625738593,0.0008230048438117812,-0.0007947750538387448,0.0015962704699282973,-0.0003792981455806657
0.0003981588909455342,-0.0019442271191647009,0.0039606270330317965,0.0024329350009605873,-0.0002573165314711881,-0.0013276362412014055,0.002709493098850364,-0.0015732680420020159,-0.0032811026511227193,0.002750136348001907,-0.001034716515781869,0.0019117926001404398,-0.0011909388184603864,0.0003223230428514327,-0.002217274677847692,-0.0006776296625276534,-0.00045446787257699976,0.0024962689298597043,0.000747317269173624
0.001599894374811623,0.0019083212920152739,0.001785141562080338,-0.0010347100905792688,-0.0021707616770151026,0.0034138275816922754,0.0034627701571558834,0.00032890791681462853,-0.0005629831648769567,0.000366466281048259,0.0027615798734664885,0.0034253616876749274,0.0004688614201878954,0.003443351966156265,0.00130728573710558,0.0010991721958395805,0.0019972158587605177,-0.0010110202396460854,-0.0026402881789258674
-0.0005947684507359941,0.0010187045728512218,0.004240844568752367,-0.00028646400389242187,-0.0035911375584747594,0.001438480982120356,-0.0016243726381608332,0.0009159468208881968,-0.0011740407226077667,0.00031487454159565725,-0.0012636813068697761,-0.0015323859337522529,-0.0008798071406236063,0.0013190677516221373,-0.001501554358573177,0.004115040462636355,0.0023491716547477523,-0.00285471920678925,-0.001266513611195228
-0.0015312546162408796,0.003275452270065963,-0.0024332654103117897,0.000692460399135369,0.0022803674185901996,0.0022633891898364493,0.001972978061828197,0.0003814197932945096,-5.793397422300991e-05,0.001370421009509478,-0.001188788036084397,0.0011386440749983956,-0.00020924204214310107,-0.0012122790403991327,-0.000198189518487873,0.00014423329829555106,-0.0010743562305623219,-0.00010185443842018227,-0.0009520376064798963
0.0017880013046628967,0.0015798287762101106,0.000764194316867041,0.00047956320336477913,-0.004036498375002751,0.0024461854262623176,-0.0004028451118186394,-0.0007854079315698802,0.0010548025844912764,-0.0007883580078542219,-0.0009069296110798894,0.00048263457099957565,0.0029303077805503575,0.002086097273303473,0.0012849423368598968,-0.0023020569926041983,-0.0022204584348012976,0.001096615041443374,0.004808524816144824
-0.0012568390384029022,0.0004399820767846486,-0.002426088625844206,0.0022661983818252386,0.0012477613194828525,-0.000373087131987967,0.00012664600936899934,0.0016916364874097123,0.001204285753682163,-0.000246524851091826,-0.0007445039908616338,0.003015493676909666,0.001912326451088887,0.0011497223154725384,0.002129981053245041,-0.003622553170587236,-0.0016621880623236122,-0.0004631271157744804,0.0011161103419956902
0.00043114639676267554,0.0016015409105293974,-0.0029978841776733644,-0.00024531191361398623,-0.0024876026037258772,-0.0005506808928645661,0.0028389781992397096,-0.0016202894999853025,-0.0034256870832840717,-0.0007753960370856525,-0.0017198349408107736,-0.001835570292903432,-0.0003603551590801227,-0.0012569492074527714,0.0009170216485814645,-0.00024076098035629508,0.002909479424480021,0.0003009345281000201,0.004170336129380416
0.0012259194757852354,0.00512376671737926,0.0010188951601557868,-0.0026471994080908795,0.0006442519074101679,-0.0003393763971884361,0.000512122934491521,-0.0019571422523420837,-0.0036294803183590124,-0.0010003411507008711,-0.0014779568092846908,0.002857747697303789,-0.0023469284329855644,0.0001430093381685785,-0.00034044834405387077,-0.0005698742024725644,-0.00014576755794439323,0.0011602649593645351,0.0018487604527279574
-0.003676483289304131,-0.0021767615883675363,-0.0017384496103238596,-0.0007694260835314212,-0.002422099079654946,-0.0005472448046071118,-0.0007485346203136109,0.0010324355709762382,0.0003615494334439474,0.00304099857556538,0.00047055982206948947,0.00040193811431781293,1.7716409110193e-05,-0.0019334983304464465,-9.768903695222239e-05,0.0017475838846804314,0.0014443110093594292,0.0008143429449436187,0.00022306289860849298
0.003434026826705425,8.128168534739942e-05,0.0037554564836661864,0.00013806636332968484,0.0008016784729429763,0.002509767707478571,0.0020858141489994986,0.0012838952128707431,-0.003976535956123817,0.0034681024524778766,0.0018551972821295745,0.0005182592818972241,-0.0015989188977212567,0.0008893581946185871,-0.00030605945282419,-0.00035934343258057594,0.00239687427389707,-0.0012833835882210857,-0.0007654931055708801
0.0031792346758453193,-0.0008654683635569021,0.0009985163279805274,-0.0034714955368748317,-0.0007687599684545191,-0.0011109903001757777,-0.00042298210476873554,0.003454572650169596,-0.0014641711006082555,0.0003619997365147659,0.0018910214182484447,0.0018951288628357803,0.0011354440293628789,0.0001895303619202047,7.314141575373349e-05,-0.0024562461980268254,5.036737540596548e-05,-0.001825567463721506,-0.002315557203903735
-0.0038844046940250516,-0.0018213301948640046,0.00038156257890443416,0.00021598037104062452,0.0013802976357246513,0.0019369967715939683,0.0012033932725589768,-0.0014050880881305153,-4.921906358290605e-05,-0.0003820717738194351,-0.0009634212101145637,0.0026961430330897096,0.00015635014494045247,0.00023090322076154709,-0.0037496714306784343,0.00012177387389095317,0.0032206270232907827,0.004206356515698708,0.0004475812998221231
0.0023470759082212193,0.0027639739602173686,-0.0009713972507186887,0.0037102223247632623,-0.0021790760685171445,0.00024515627523564955,0.00012291288215572377,-0.0023819028645688904,0.0017577333516246609,-0.0006053496642983541,0.003633543915945555,0.0008517333749400197,-0.0037627501295707812,0.00044439185864409114,-0.0038919817155843917,0.0013325593536284523,0.002165971348363231,0.0050026116553957625,-3.4250092404870248e-06
0.0007795605897903448,1.4348994433656433e-05,-0.0013737502134658019,-0.0002609468835632632,0.0021553532123583944,-0.0004892235469218876,-0.0008119827051279025,-0.0003569416266865741,-0.00035990401367642986,-0.004609920797572822,7.310683081641382e-05,0.00010209247842688776,-0.0027607914479016523,0.002673208489807718,-0.0004489068646237655,-0.004319422896431428,-0.0028326288871619153,-0.001803653803971919,-0.0017339474069585374
0.0013448198599038497,-0.0009020537801286876,-0.0070737399470956345,-0.002703711973520248,-0.0036972627252296526,0.00236066722050308,-0.00329141366990694,-0.0009603171946638759,-0.0027512180550368277,0.0018215508574764545,-0.0015954267696125398,0.0001727561627723482,0.003011549073662329,-0.00019743941078203587,0.00120123725851,-0.004320883964817494,0.0005164992265353392,0.0005694432415420617,-0.003919317922956384
-0.0026842463115862502,-0.0021782849757350934,0.0005009501202893488,0.0008855515930427342,0.0014786973215432494,-0.0036047673348395142,0.001800371386640536,-0.0016026000539678734,0.0016118531980569542,-0.0022561692902388136,0.0016110048534223687,-0.003161019588356212,-0.0012655785698403841,-0.0021023033933412734,0.0033355054901374947,-0.002335521423075168,-0.00043599867672011603,0.0015129998684426916,0.00030546954636582167
-5.396713447641785e-05,0.001303759748977651,0.0013722547382523707,0.0016065820147931453,-0.0003545053479304763,0.0006244601495137925,-0.001133104555230546,-0.002334869596335311,0.0003412240157434127,-0.0018161292053835254,8.972396777501145e-05,-0.0016694961082238352,2.4536667270486658e-05,-0.0007028225489925736,-0.0011269727448150037,-0.00283512546825678,-0.001383405135537159,0.0022404804152380085,0.003722880943276424
0.0008506107324910713,0.0010571042272575215,-7.117301636463455e-05,0.0023367634939693975,0.0024540355241621592,0.0017399421958464252,0.0014597433403494568,0.0014843574967326808,0.001218911522282536,0.0008268107059119147,-0.0071160936666974,-0.0006682745263871443,-0.0002613839740778242,0.0021022610179128112,0.0025322185736348,0.00014271949016775055,0.003909939647870077,-0.0009649265814862599,0.0008636975497554863
-0.002559117428081732,0.0012755803106928897,0.0007988099416451959,0.0009032157789653916,0.0007715837255483499,0.001522306814506181,0.0009143897447959332,0.00017235527643837877,-0.0004657651360846886,-0.003312306398127302,0.0011835948746627216,0.0022759625401927975,0.004618818422353323,3.7974309638516215e-05,0.0013889378373437642,-0.0004543831793277148,0.002070420071975422,-0.002852873906164272,0.003570551869011152
5.0568474897389684e-05,-0.0010751791444132983,-7.79700723908895e-06,-0.003453841668920385,-0.0007888663110693112,-0.0004600556872071318,-0.000985293061453906,0.0018538982727068086,0.0007604674434319253,-0.001304164055691652,-0.00012823343285725325,-0.005422315035895515,-0.00035697369724363697,-0.003692418869116666,-0.0011111042313372446,0.002177865050865729,0.0026810531941177315,-3.787855433152945e-05,-0.0014987820184571797
0.003365760638159996,0.0005097330591853565,0.0017092225173974227,-0.0019023886428010711,0.0012513568094525964,0.0023942101945243714,-0.0007982298662354573,0.003620106891994536,0.0030366194443634063,-0.0002496425677425136,-0.0018601250502189321,-0.000645531137516048,-0.003995111139767873,-0.0019251708722105483,-0.00018601852339311873,0.00017149898618148225,-0.0008154193441916632,-0.0011907283229757332,-0.0011474697601573738
0.0009112424176032735,-0.00155440276783103,-0.000895773316893763,0.0004563027831659218,0.00021440680724155707,0.0005622495494229017,-0.006002943624492698,0.00027198104847419506,0.0010266994884474522,0.0023442190072614335,-0.0032426501745117455,-0.0049817816839714014,0.003302981218901387,-0.0011438481244073206,0.0009189484212215917,0.000517320063922757,-0.002259883809560186,-0.002493761613922544,-0.0011890772988896639
-0.0007124248434895202,0.0003685282388208252,0.0017449001001765125,0.00048687006721415745,0.0009836778367170477,0.0017783728501088154,-0.0007643073930169982,0.0021299667019959567,-0.0018782175745683533,-0.001286131656766194,0.0026144407929560836,-0.001993659173760091,-0.0006710104218029913,0.0035119112688314397,-0.0009200400389341012,-0.0036707458714499825,-0.0029468881225196294,-0.0026687209060665138,0.0007165213029977075
-0.00047625122256794803,-0.0017173691074178462,-0.001100933690941328,0.0008336832564798682,-0.000756103173524599,0.000613848550969529,0.0039445951457788555,0.0016845124984966031,-0.0025384342278509026,0.00024199064736754448,0.0004014596534665157,0.003194859466377643,0.0028881068114713325,0.00024799331342507686,0.004733116620910716,-0.0007289865124638779,0.002030085982539662,-9.749042407851012e-05,8.319843868638351e-05
0.001215950743125937,-0.0018369060929040691,-0.002768344495780157,-8.272326074073018e-05,0.004976219720379532,-0.0016451886277617184,-0.0010516196254034109,-0.0004708205377840802,0.0014781074977317206,0.0018298684065791017,0.0005133629734524644,0.0014023000426954962,0.0001947866292095814,-0.0019031565809626628,-0.001435793490260606,0.001506134806069987,0.004431377150381077,0.001420472131486225,0.0013593281313084185
-0.00010822742808600595,-0.0017833848263930808,-0.003094383108438796,-0.0006472819904274988,-0.002131031619640065,-3.9701861003723225e-05,0.0009536105864634549,0.001092731955104783,0.00011693243033312929,-0.0020640270476556624,0.000782306006293321,0.0016664332961999926,0.0010629874906737584,0.002654300515707756,-0.0010531408279031342,-0.0001286224350708949,0.0012832040987046061,0.0016436589242990263,-0.00319053864963504
0.0023259536336113938,-0.0025854064742891016,0.002341768940496343,0.0018617599681166237,0.002209922091409399,-0.002158829203966741,0.0017235591477247623,0.00025663146340256627,4.789640900292576e-05,-0.00513976100445596,-0.0034691306707461196,0.0013738598152228877,-0.00451688683428654,-0.0032760744588516515,-0.0013565917437074009,0.00135053435103979,-0.00014772720766452547,-0.0013255338138656546,0.00143858679664498
0.003433291790232899,0.000731851863776137,-0.002037849482690227,-0.0003157371970485287,-0.0024329655490680506,-0.0033473213905334696,-0.0012449088496339026,-0.00514977312593507,-0.0019777073889984827,-0.0004026630023674976,0.0007156677476627891,-0.0004909279861205414,-0.0007366968110304295,-0.002241659673280837,0.0026717172441827705,-0.0029441592895022065,-0.001302894485011922,0.00157358164226286,0.001524597445708508
0.0005491030000816756,-0.00223303358702015,-0.0006938246694830216,-0.00019003360254572476,0.002366443336689579,0.0019360130753081077,0.0013565851400459618,0.0007513969116107858,-0.001121220841641486,-0.0012657131046176127,-0.0005796862659031944,0.002817792381176471,0.001769625674072205,-0.00039408524934281925,0.0025624555118528847,1.404354632914196e-05,-0.00114470574208064,0.00017314044844442953,0.0035067659493959505
0.0009624690704342647,-0.001069402319896576,-0.0017750980572612551,-0.00012521542041451177,-0.0008968148357140086,-0.0018703918068642734,0.0013369953230557557,0.0003032857782108316,0.0014278397576923836,-0.0011882223352489654,0.002518901299827856,0.0019679666995493566,-0.00045610711082353614,-0.002255072437246118,0.00013934612098541083,-0.0011159216353603756,-0.0004892089238295612,3.1004192598751695e-05,0.0026614045849551937
-0.0004753690763096575,-0.0006716754272280505,-0.0015808548560974657,5.322117476973071e-05,0.0015574932127956215,-0.0005139133096302398,-0.0011607685856071693,-0.0001596430457662892,-0.00255176584069087,0.0006714620402675406,9.857929813373681e-06,0.002511912708912873,3.605757577421877e-05,-0.0006968145802956733,-0.0015694089065771437,4.847132626783872e-05,-0.0017423576676380513,-0.0013442552969099534,-0.001257552895670087
7.498736763019809e-05,0.0011119464652190427,-0.0025046817088806694,-0.001363412956922945,-6.095898961315263e-07,0.000567190221170471,0.0025183807730435343,-0.001928026818207892,-0.0013770275522180914,0.001981919592189369,-0.003179032253762831,0.0026507162115926145,0.002639662076918537,0.0016749052709328065,-0.0003878767413037565,-0.0017162211785745449,0.002727511601450979,0.0011239004541974615,0.004004619591616043
-0.0054065418865414635,-0.00116451397233923,-0.0014975995063126585,-0.0016626191741814901,-0.0014170558070691788,0.002556797188747653,0.001757807061019144,0.00017097907983854265,0.0019175747170920936,0.0001891413607932967,0.001301179659853597,0.004205494638428611,-0.003159516830373351,0.0011965714712359756,-5.7637585958857265e-05,-0.0018147532888056741,0.0007739038555673851,-0.0028453715947974294,0.0002707890790809632
-0.004107163697574121,0.002038414418322665,-0.0005810115750853664,0.0025324593684142352,-0.00010260430757061345,-0.00017059456534626604,-0.0021031757596122603,-0.00033021907749283586,-0.000890634487583275,-0.0004983948886789797,-0.0021587822668765267,0.0006024294678065845,-0.001924063533155988,-0.005038020248677235,-0.002860231858383014,-0.0006721018747388046,0.0013689944230083502,-0.0023790688349010717,-0.0016879849895979902
-0.00019931059649647536,-0.0006264752635068837,-0.002376630640319395,0.0002474737513146418,-0.0027204421470570996,-0.0032245509436117465,-0.0023104440739294125,-0.0009761376294290377,-0.0014664332441277467,-0.00042163748628917477,-6.845817842614606e-05,-0.0003934214559289464,-0.0005020331776203231,-0.002478960685717045,0.00116766178344717,0.0007973938068203598,-0.0017644554049406906,0.00031539258660550685,-0.004457785100427359
0.002059733016153045,-0.0017342059550495856,-2.891864966461443e-05,0.0013369631234840637,0.0008589036264961542,-0.00034733686387345813,0.0012621224798453643,-0.0006083684280081002,-0.001493341431885282,0.0021739815965550456,-0.002587113159687509,2.4982490563199623e-05,-0.002406323733186129,0.0009714004727282669,-0.00013470603626385537,-0.0005798470884994456,-0.0016102832729467894,-0.003720222861638656,0.001653928130456511
-0.0018082458416280995,0.0012909921716523275,-0.0016490634235807097,-0.0011728313361571141,0.0011302347298662234,-0.0030778162991314875,0.002230883870155401,0.0010689720349991722,0.006069562779751124,0.005962481335070069,0.0007135409297593046,0.0005391386188361897,0.001435500028647087,0.0002659386558647373,-0.002330897892402113,-0.0011875025988932549,0.0032976427740475664,0.000320839616752239,0.0007664819708737438
0.0007597958468760336,0.0006636727839137613,0.0012775806973434934,0.0011944709163122162,-0.001307213401369253,0.004978265711014971,-0.00048782585416805963,-0.002622009905456574,0.00026392505320430975,-0.0023306643932207143,-0.000480672565745369,0.002924490208132108,0.0032595896977906037,0.0036173932397519505,0.0020949375463237296,-0.0005154711341714867,-0.0004899045998318192,-0.000725899526382682,-0.0018618362466702198
0.003207580453290867,-0.0027391821328157924,0.004318790359169542,-0.00022733793531081297,-0.0005861067408091734,-0.00024510945587748656,0.002362658231747159,-0.00247127080897444,0.0010481088516023469,-2.559596598466179e-05,-0.0025476960587021316,0.0005475671726646744,0.002797327593109836,6.0524787037130595e-05,0.0018204453331024193,-0.0018025325811972801,-0.00017230196635595682,-0.0003161166635198448,-0.0003163276258647819
-0.0007850815974442815,0.0010570546004283732,0.0010826136887337125,0.0024336816918402926,0.0005442387658804603,2.198456651091939e-05,0.002269907050294468,-0.0008224478415718561,-0.005147215771323715,-0.003679599770028534,0.000141720584604912,0.0010953931866277732,0.00035978495435055023,0.00019235289036264024,-0.00014049909576750364,0.0012212842734818576,-0.0008903283505786859,-0.0033633090636576352,0.0015476483057343434
0.0012425930613335042,-0.002433909834349457,0.0009641902467110704,0.0003689174066746219,-0.0021565095171516033,0.0023415165414382272,-0.0010358668223591026,0.0017698233441369034,-0.002533976829637552,0.0025032350863878955,0.0031749219221564005,-0.0015699478435773227,0.003299788259223822,0.002610533171944606,-0.003807513207985324,0.00138062287420117,0.002152537057290098,-0.0007922004909026854,0.003968565896505641
-0.0020268349932523006,0.0014728775902596494,-0.0020310224813879555,0.002646141324202858,0.0007040814007654825,0.005957182331732236,-0.0017811644154946502,0.00032901967414907766,0.0018310483229623965,0.0016922009731141442,-0.002026223330586262,0.0011042189137609865,-0.0006533002224761932,0.00028797862339097414,-0.0004607443780528309,-0.0007753499062829172,0.0012505931630645184,-0.0009293730986366475,-0.0006984978806703659
