0.001433233792313252,0.0023762075035495167,-0.004238526237386787,-0.0009523024299200836,-0.0011908635428691074,0.0016536565722407284,0.0015799465492038463,0.0018785016592404143,-0.0006205231567214623,-0.0009269335746141812,0.000855103191079993,-0.0006047723831352184,-0.0013694369209278317,0.0008557334684004457,-0.0014060855286219512,-0.003289277216230427,-0.0031843183736554085,0.00098646449478928,-2.979574692124205e-05
-0.00010239512086258123,0.0010796160854470442,0.004664264813016313,0.00020698619904640383,0.0037494840530605646,0.0024075153246587684,0.0020079270657865074,-0.00023633243253269208,0.0023476650728070235,-0.00021741273508522733,-0.001813363721459892,4.839780110038102e-05,-8.745579631929177e-05,-0.000594358976490241,0.002135873146145892,-0.005272823322784779,-0.0023895516333402285,-0.001823327311548447,-0.002053033780281308
0.0005058545003457703,0.0008651437349019612,-0.0008693216939357805,0.0009921291400948416,0.00027184047028875317,6.579442524503865e-05,0.002487696236526036,-0.0016421210037644795,-0.00018707952339818882,-0.0006191209560345756,-0.0003495339522459407,0.004771977982004855,-0.001471935698843579,-0.0015015581987968256,-0.0017298344070346794,-0.0012565062366415366,0.003217796133079055,0.001593397576648852,-0.000778321331894852
-0.0007225562388761859,0.00016476463661626122,-0.0003581470655823128,-9.476622323894138e-05,-0.0014050008000801692,0.0007326982559879242,-0.002296114824251739,0.0007706973711981932,0.0016879364506498875,-0.0017596703533344187,-0.0002923052826363792,0.002621909253626524,-0.000493398335547478,-0.00034829266259201114,-0.0008620132297470774,0.0035831079360574467,-0.0002768873667383424,-0.0007060784450464695,0.0006341231231673274
0.005533961982954617,-0.004259398938624328,-0.0005361835284444405,0.0005467046583933965,-0.0012155016281885664,-0.001112358411821393,0.0018462391151725145,0.00012868142482718253,0.0049441564384206235,0.0048871527148303074,-0.0025569743581055735,-0.003308755454907937,0.0005754128204120525,0.00010491914871059846,-0.0018815201404835107,0.0010861341135670135,-0.000677963764892352,-0.003615117663215068,-5.007335466647037e-05
0.001708808151489606,-0.0009962600062923038,0.0007599032360146229,-0.0001861970789011704,9.342983411592182e-05,0.003917955788037747,0.0036470400572899014,0.0001456323001811428,-0.0008358298541750154,0.0010794345970278104,-0.0020596561180870536,-0.0005122584197246926,-0.000971768265453296,-0.0004860131138681625,-0.0008194439751844293,-0.001840618628461403,0.0009975685369339633,-0.002144756757647201,-0.0005898432662568059
0.00084324083578533,0.0016971139556144592,0.0030916639944070946,0.0004601091857085201,0.0007027998828042167,-0.0032639245903604707,0.0007869863559548743,0.0020126361171070033,0.0006298961987395214,-0.00037857819617820705,0.0018719324786651797,0.0003214314535981283,0.0014304884782354128,0.0007332939641330414,-0.002718789920125418,0.001302644377486107,0.003748484238715012,0.0009692186210097584,-2.3916927421763832e-06
-0.00030366498176964967,-0.0015792948039013196,0.003184595265989118,-0.001282483880702833,-0.0003066703427064292,-0.004176550626654339,-0.0004419528267788073,0.0015582447483294267,-0.0010069566345764717,-0.002558922118289358,-0.0008573640412697715,4.756786705612836e-05,0.0007694871126359825,-0.0009170128813896908,-7.403764010732887e-05,-0.00011825135783451213,-0.0012738182977180827,-0.0017544875722740976,-0.002012473369241748
0.0017016484607220838,0.00031675759073099676,-0.0004658140811472831,-0.0006590828683415892,-0.0006961745668343785,0.0008464060317141538,0.0038483150665968237,-0.004683301559012458,-0.0019536637256378467,0.0007649701942751115,0.003868194682417276,-0.0008405806467773361,0.004202510996474419,-0.0008656892179688774,-0.002561136710455722,0.0007728685549686389,-0.00042718078785913366,0.0008132892140237016,0.002552473998281747
0.00023855331887238335,-0.0022397012266645194,-0.0005878742100018274,-0.001845539253327991,-0.0009437153166132707,0.0023017064980267593,0.0033811370191990995,-0.0014342460078573805,0.002457113550141798,-0.0024984892209307975,0.0002765532291102977,0.0024555876690592155,0.00035044814154167205,-0.0002642201741063256,0.0010236511935646539,-0.00023607835253737627,-0.001784516716192903,0.0015868589900871033,0.0001576593442628239
0.00042191765143664677,-0.0017857895974900573,0.0028146370684710527,-0.001311354960176331,-0.0037101258240725345,0.0024724802186954498,-0.0021918323451922345,-0.00019192605092884516,-0.005077985826727828,-0.00023098692653620575,-0.001623649223048856,0.0014389528614722935,9.45064340530187e-06,0.00024504922219290324,-0.0029359642327098914,0.0007619613788536795,0.0015968346533481988,0.0014108129939374922,0.0016156280947184284
0.0001502869317231359,0.001614217416205957,0.0017597302920291547,-0.0001450646365681104,0.0011294011045316823,-0.0003560747470799434,-0.000598753960920765,0.002417385960974555,0.001853597913452487,0.00025101679319277867,-0.0002848173989067448,-3.5705221305373005e-05,-0.004091711426571753,0.0008988650131973292,0.0019738354708235227,0.0037399477586047766,-0.00042252860516105124,-0.002324523569385129,0.0023701370102913316
0.0009720689691534248,0.003228546924591432,-0.0005922776956099423,-0.00017958177277197358,-0.004007568422959015,-0.001715151484867887,-0.0015883028323579972,-0.00020957626696032575,0.002769710024633921,0.0034573574493944304,0.003552082876230297,0.0006680681504287044,0.004062236325943696,-0.0004452384976884323,0.0002473786213055634,-0.0038246692568739502,-0.0021278132140027575,-0.003098546927972115,0.0006383615724671963
0.0034952411062068056,0.0011292618054306142,0.004385590400094919,0.0014460908300286633,0.0032545474063918178,-0.00020515511183313295,-0.0018531848798546086,-0.0042737224191195635,0.0007615267680908725,0.0022881640891706935,0.0024397134343166014,0.002417609351957835,0.0027195058900495524,-0.0034320292296183812,-0.0007590160494665211,-0.00112892824495204,0.004009638523563776,-5.297493818245279e-05,-0.002677540240321045
0.0011394452024405261,0.0011129278948506542,-0.00190490434486745,-0.00265732406615153,-0.0022345128823315326,0.002186156456570724,0.0005145329970826862,-0.0009683833245418171,0.001467798362849773,0.004567234513353309,0.0032867525019523334,0.00024562093109775944,-0.004774175595518187,-0.0005922104333417198,-0.0006821719801056342,-0.00026655114263990067,0.001707929611417028,-0.0009109676446908909,0.0006494446376611272
-0.0005119581493406522,1.4146873190593851e-05,0.00098321707683583,-0.0008533417364130431,0.0005036779988737658,-0.0013055561326930465,8.850557733730427e-05,0.003254117090680394,-0.0019031545625548829,0.0009379677640393468,0.002032845289591015,0.0003597614391843022,0.00018440501440292022,0.0006564499176154961,0.0006151798903787468,0.0007546808884131629,-0.0025142200884347666,0.0010035362922613722,-0.000899575189367769
-0.0038263355555892306,-0.0018473309046439608,0.002901318447158095,0.0028462759260650815,-0.0004056100966888865,0.0006991696257102451,0.0010588750030296355,0.001031600753691972,0.005193678410374062,-0.0043314493950514605,0.00037422666250174136,-0.0001837002451178891,-0.002589506765467464,-0.0030801421776203617,0.002491927182303734,-0.0009211702076198159,-0.0011690524985313875,-0.00039934069425315413,-0.001207041291234801
-7.20549953912122e-05,-0.004368408730865745,0.0014695209208891143,0.0015229441619586449,0.0014548658938249484,-0.003353332452063521,-0.001183423105787523,-0.0031129386916636274,0.005148817475998591,0.0024732885063710403,0.003681536560045845,-0.004418930970499216,-0.0002513144136707777,0.0027452149725518786,-0.000716134035280391,-0.00034011289491583116,-0.0001991507342483817,-0.0015438319597456671,0.0017134162276207182
4.590775448549632e-05,0.000793776298131094,0.0010700511011041427,0.0007139820025029183,-0.0019278751579983146,0.003378053397613162,0.00243922757797253,0.001836942282016772,-0.0006742879306705794,0.0035316068165148337,-0.001220212972957211,0.001763121475242916,-0.002088857807845917,-0.0001326118190807645,-8.951727770235253e-05,-0.0002745501504599807,0.0027393407409108447,0.000401118059100611,-0.0021502254525817047
-0.0006082900898252556,0.0038310527236813017,-0.0017379448136042505,0.0014947317435695104,-0.0030942596959174875,-0.00048361183239799754,0.0006608940864543905,0.0006824020693888651,0.003169126180298574,0.001465433914569013,-0.00188663659819873,6.611969058356202e-05,0.0005079928399892882,-0.0004558652723593125,-0.002659776177059679,-0.0007109052898210447,-0.0006651612520401372,0.0019497604034780702,-0.00041825604466769493
0.0012349194967455986,0.0041602104844728535,0.002132884428635073,-0.00041883342289823663,0.0005117602154883468,0.002868189624003735,-0.00019796949130640302,-0.00243580404989958,-0.0004453156641882211,0.0011378507640328447,0.0005817600149108993,-0.0012023308945173423,0.002153896233542664,-0.0030688971062295713,-0.0021007337837616337,-0.00042989964746423015,-0.004698026573249666,-0.0005939334631115857,-0.0004904842040708017
0.006057674036777452,0.000775451977834376,0.0008641774722242563,0.001222660534181455,0.0010856889714981946,0.002270317409507045,-0.0018349830167671657,0.002414546260333587,0.00317219171973774,-0.00041914190283350397,-0.0016623100619738687,-0.0026829011624108097,-0.0012918566952181993,-0.0030502111018594646,0.0004582262110632957,-0.0019883686772582602,-0.0008845207184678135,-0.002018692207366913,0.0014471207353071976
-0.001358906326057385,-0.002939741753823892,0.000905952953986875,-0.000968801208309847,0.003081288097343349,-0.00012818933297478342,0.0011329203661355437,0.0030916373729708026,-0.0008535797363550355,0.0017557558298060003,0.00021409164872956786,-0.0025971251554061155,0.0011114628006417566,-0.00021162193446252626,-0.0009747111341331734,0.000697382830325502,-0.0013771417499165877,-0.0010608332205284336,0.0023852971150608577
-0.00028987496447260955,-0.0022873576794095745,0.005335553442947432,0.0022651765387106493,-7.453886236924555e-05,-0.0005228727459561901,-0.0034600986178389124,0.00041248436101241236,0.0019495839974614994,-0.0002102490202903995,-0.00012162837205384365,-0.0020862163960580376,-0.001481248627018306,-0.004067139552230438,-0.003088470133067179,0.0009252775742579098,0.0010728626633390531,0.0015924330819234208,-0.002183173820718648
-0.0010021263379898213,-0.005447746581433553,-0.0003456202520006785,0.001420448611378391,-0.0007781419279334897,-0.0032005715191429506,0.00011799967980269641,-0.0019056636841692145,-0.00056426956561839,0.0008500031331870712,-0.0035823633275312615,-0.001380661890822743,-0.00013993761288860616,-6.58006222575532e-05,-0.0006563464181037152,0.00023347250588821205,0.0010704467746711936,0.000923136618476286,-0.00046609855349298443
5.859553979122458e-06,-0.0022966370368959297,0.0011083900899000192,-0.0006782619169208531,0.000777255194983876,0.0009826957270059173,-0.001433437032776065,0.0012208849987264468,-0.0015113541601261414,-0.0002952304881215163,-0.000489593681617813,0.0006002277652539123,0.0009811586379186046,0.0012040153694615823,-0.0002728116492283083,-0.000746356607566649,0.0004969492176413417,-0.0011287731411978843,-0.001413446759724119
-0.0018154180578697952,0.002701570806725585,-0.0023224016239543643,0.0007017329209104427,-0.00028974654369828487,0.000963181786305741,0.0001281149503888468,-0.0006683041431985113,-0.0007682122251302144,0.0003462359667198425,-0.001745734442459697,-0.0005148036099543778,-0.0007772318446354533,0.0006696642593453115,0.0010556220937369284,-0.0003429841133035046,0.0003949969785404845,0.005216056742114895,0.003531209833645005
0.001705344579027526,0.0014415612255360931,0.0016644060547947876,0.001189823207550571,0.003838901561129167,0.0011139710955258826,-0.00038443794164735856,-0.0012696379189421271,-0.0008730197278065478,-0.0013262574459450569,0.0018777970242387183,0.004532204096730143,0.0024485608974853385,0.005114457511327656,-0.0015443565641909173,-0.0005381987312673101,0.0008400183420668768,-0.00016724104937481762,-0.0027642421492711016
0.0014319444045282797,0.001524141425266354,0.003853999776178952,-0.0009953079907178198,-0.001112229883098759,0.0008175808389513084,0.0024945001535294324,-3.4798460904485985e-05,-0.0015905649087177467,-0.0005264649829678494,-0.001770465710808264,-0.00043715759210329286,0.00010489975740866568,0.00012323788120116534,-0.0030521370827258074,-0.00023414971095585843,0.0009815651211094298,-0.001229705015394231,-0.0011636353345065122
0.0011925249147563728,0.0007186171919232095,0.0034338333724618663,0.001912300770763719,-0.0013906597775269539,0.0010767264759220323,-0.002167673066740827,0.0012430792929951225,-0.0022400907005523203,-0.001742731394014299,0.001892827818282131,0.0020806668089068565,0.0005046734341697936,-0.0013971128641534609,0.003076797265948576,0.0022265039033167564,0.0008857643746120007,0.0010036062287327493,0.0004894768662349761
0.0025222965215330522,0.002568811207619717,0.000870757558331073,-0.0005137505500469972,-0.0009685302486409542,0.004178395847449885,-0.0003312648114422055,0.0003951708629937968,0.002223165255774387,0.004341009432227231,0.003997736359861267,0.001155387992892671,0.0012737250684484638,-0.0017411127954683918,0.0027326202180638225,0.0011558924848802043,0.0005856149080908426,0.004283217546369602,0.0002748571992492567
0.001984920044811969,0.002733964552142909,-0.0004537858962043689,-0.0027260022566378403,0.0006040193263870325,-0.0019815460713841367,0.001278596244744831,-0.00028559780850288813,-0.003236206076549171,-0.0015807345302903562,-0.0020322434845409434,0.0006312983632460056,-0.0028101373196407677,0.0035880519514208935,-0.000746178898696121,0.0004353760497314619,-0.0007216449594892153,-0.0003704690239489972,-0.00040265992026067293
0.0022726231441986167,-0.0039947064197075255,0.001527538676773688,-0.003102209079098039,0.0015494741382160867,0.000161638099773461,0.0019156295801485265,0.0022255675381442175,0.0026078165279415006,-0.0012339995011814173,0.0007674661614802815,-8.200967586758894e-05,0.0011112338682715372,0.00189052208137038,0.002397809510627454,0.001522229119067444,0.0009411900465283496,-0.00024621174095585367,-0.001430577313716514
0.0017199644852662834,0.00215550374745606,-0.00042695259443378776,0.0009851927497125145,0.002588533278184474,-0.001121433980076595,-3.209285232750237e-06,0.002452014142219107,-0.0009620863123560885,0.0033375511181772495,0.002184234494308532,-0.00043088812174568605,0.003159768849392615,0.002690706937730182,0.0016688303818780262,-0.002160991705152239,0.0007976391393129579,-0.0015096142380729134,0.002428176777528265
0.0004996321772407197,0.0022847266349326103,0.002764227686984134,0.001358983236850133,-0.0018265146075277163,-0.0008930640016050522,0.0023174646480228385,-0.0013667755602647309,0.004730631311796379,0.00042754411899341,-0.0007901932342278268,0.00013848618169593917,0.0005277064937068201,-0.00029707444162177624,-0.0016833378924061729,0.001160928516819507,-0.00043157156687623736,0.001013224624626394,0.0006311150233381664
-0.0026921964214676607,-0.0011642237462102301,-0.0038510668228948566,-0.0011700346497874358,0.0015528520194284846,-0.00044808053654138555,-0.0022962981441446667,-4.8664853003532724e-05,-0.00032691753831633717,0.002266717320430363,-0.002191911312917103,-0.00021291378392963538,0.0019344790013237254,0.003127467658102898,0.0019726785666933284,0.0025546628032888114,-0.0024725711822930377,-0.0008149405247414503,-0.0016697636319397426
0.001968124616402475,-0.0027666900313119565,-0.0010180024745009206,-0.00560795700833107,0.00031561909325985215,0.0017902282619762127,-0.001835024479350426,0.002086531217511758,-0.001336826093907525,-0.0019295720297328822,0.0017204856250651304,-0.004116433139214067,0.003907895676720088,-0.001127962466321039,-0.0011348273494043268,-0.0003457459666233639,0.001399759170278924,-0.0016142184923814056,0.0021527195431469046
-0.003597441885528096,-0.0021828527600257336,-0.0014219536460063115,0.00017419391568387392,0.00021042617456771425,-0.0020034270710421547,-0.003980084067068524,-0.0007378499659399518,0.0007227850106767643,0.00032240236007212577,0.0001931505410603946,-0.0009716013337846176,-0.00228733504827362,-0.0020139638618500446,0.000331763843749875,-0.002135479600751954,0.0003683010765642321,-0.0005301311042952871,0.0007774720831436807
0.0007106386288001316,-0.003259854980851702,-0.0005565772801295184,0.0003126220559192565,-0.0024856794656513584,-0.0042492156440441875,0.0016079199815320063,-3.807764794218995e-05,0.00617952304527006,-0.0020116582048281696,-0.0015646816767481131,0.0009443822805478294,0.0029812915396061584,0.0008057479287966915,0.000928475584125866,-0.0027358941738062294,0.0004835289880350802,0.0011983234815148283,0.0006885945121755333
-0.0005437002652163644,0.0029288825290781774,0.0009556341822334088,-0.002848200349495748,-0.0035771972848261473,0.0008333382127839382,0.0014733040462587671,-0.003001209109666434,0.0019029337200014876,0.0016299074089837589,0.0002112509942428599,-0.000562808790111655,-0.0014905810187991805,-0.0005072111976225808,0.004637265538621381,-0.001626268588292806,0.0016367496194046294,0.001183547630162736,-0.004245311961959577
-0.001152181471201632,0.0031556865232952,4.4897552933418284e-05,-0.003613696520998927,5.8680011794354393e-05,-0.0019651866969688787,0.0004986811144810333,-0.0012766825400673983,-0.0003770492627883242,-0.0020441927115372985,-0.0005739410228440282,0.001521865939381866,-0.0008425375952663306,0.005192968802687076,-0.003339268473997183,-0.001769324450607024,-0.0021121469692817808,-0.0024534431862265078,-0.0007220719978341118
-0.0016629777278955602,0.002348153449611822,-0.00022635235148862006,0.002108594891340662,0.0004502535005514278,-0.002493919075224165,-0.0012653747033982807,0.002595199547930247,-0.0015235062490076444,-0.00213377152830938,-0.0005308458112753174,0.006551118537145051,0.0005822870436215205,0.0012009545082695746,-0.005077991078997021,0.0029491747413876164,0.0019121952392535705,-0.001830097493580657,-0.003022195974459369
-0.0023349366393588243,0.00042228652995375624,0.004226469294878876,-0.0016842737385075416,-0.0011928748308301916,0.002575747006580138,0.002370837626491036,0.0021009139419005457,-0.0005171417195325704,7.653567852948572e-05,-0.0007811990210428997,-0.0015981225120341132,0.001133011628766879,8.129665953613166e-05,0.0020671103507247583,-0.0024943556132992675,-0.0011212542867065126,-0.0023249057310879063,-0.0034270325775363425
-0.0017703993086148103,-0.0036539871377016943,0.001027347478511447,-0.0005639637837235356,-0.0012942034099638088,0.0016953735114738488,0.002509797799408516,0.0006580872050482012,0.0028230878259570056,0.003045508038838055,-0.0026996058412090134,-0.0006052030092393509,-0.0022682383605949156,0.0016348645466932226,-0.0047053116158616865,0.00033463542440777716,0.0009561370366375767,0.0018524952327767527,0.0006360075602947297
-0.0025236280835667048,0.0016301366742677858,-0.002665253894975404,0.0032578067194432123,0.0004980421477989751,0.0021108160866076093,0.003710278013628563,0.0033426284241779075,0.0007321858379874764,0.000819871640016129,-0.0017699208635199321,0.002759486440692409,-0.0013878496484351264,0.001155524740995591,-0.0032392407686216967,-0.0007376989456511383,0.0008120499617963858,0.0018932098146730693,0.0019780520120746227
0.002299634355566091,0.00030780936105543504,-0.0021577085071219555,-0.002681650409555007,-0.0019085047451985232,-0.0025442241575527897,-0.002833664339172645,0.002569468851369578,-0.002828052499757059,0.001784422642525103,-0.0010884043827562547,0.0031537810099948674,-0.0004291755240864721,0.0008811010570004854,0.0005287746678157914,-0.002267048344830709,1.4957296262120404e-05,-0.004365482469904382,0.001814838682878254
-0.0025390691124768535,0.0008061559243954759,0.0024021084036755314,-0.003652951456527509,-0.0020765403461762357,0.0004974560412840795,-0.0004451540791988477,-0.002439752246002068,-0.0004280605210341938,-0.00024364171661048838,0.0006586753378466325,-0.00043085495789872805,0.0019591572461102463,-0.0007616776701007506,-0.0011936105970181375,0.0021116008243758774,0.001471805964785899,0.003797425374934126,-0.0009047654580859811
0.001958342449351242,0.0020808225502285623,0.0009471310436446936,0.0015717599530829548,0.000490664853730069,0.0014810884714381517,-0.0013832435223504948,0.00015918304359975778,0.0009491525249962224,-0.002221526981807915,-0.0005567138125518778,-0.0016843808384187822,0.0014660136202414,-0.0004279422238632317,0.003972243183024204,-0.001763225856347689,-0.0012744873905221937,-0.0010339646525905687,-0.0029762599523403157
0.002177361124762757,0.000631322861542156,-0.0025334678953327213,-0.0019195104375042385,1.1811472956204278e-05,0.003876913656259617,0.0037717455863314157,0.00010895142552641554,0.0028027116889229463,-0.002645638782252278,0.002158181220958921,0.0002583179313904306,-0.0002366776785238341,-0.0002954149626193674,-0.0002322192823908612,0.0030900979952609765,-0.0013299528500802511,0.00013779417261055625,0.0023649544018830115
0.002605527033568862,-0.0011118215259743375,0.0022095501969618156,0.0002504947207960579,-0.005000832789245447,0.0012990964921292209,0.002242019000404919,-0.0002130069777976859,-0.0003664208409256206,0.0018459702909551135,0.0013465865652366037,0.0005742803050759853,0.0007844283929492107,0.003805085451859265,-0.0015003480841877808,-0.0038949757502623897,3.2354341981445044e-06,0.0018315428143161694,0.0009170645730089982
-0.0024731591832789232,-0.004476437814019758,0.0012851834270430492,0.007984064702212931,-0.0008223495879455874,-0.0014156697241501594,-0.0014921616868506609,-0.0006365482129183663,-0.0012516518033153028,-0.0013776957893530716,0.0007617335698796325,-0.0025968962010564246,0.0012300130986446288,0.0013269380736049444,-0.0011237025710100835,0.002651563485745292,0.0003448188697308376,0.001616195480494363,0.0017719956913105888
0.00264895534702561,0.00030911548334811815,0.00220503186775887,-0.0010536224871975795,-0.003213071465193557,0.0003524656705189558,-0.0007676320019093269,0.0005785858014923171,-0.00040228974868034093,0.0009098122691287532,0.0017378377468569033,-0.00011033279719233446,0.0002861217490525237,0.0026416411824915905,0.00022812854244409747,0.0004922427908044771,0.0028697482255904136,-0.0022364797081629974,4.538948152941567e-05
0.0005895341659219497,-0.000304051060620766,0.001391586092209795,-0.0005721606721136727,-0.0016043314400611035,0.002067370840963771,0.002224000151368242,0.00012061162774731794,0.0018423568597001438,-0.0015609836987133163,-0.0007597456021945892,-0.0004669515578370797,0.0014763814302250022,0.0010246968735004019,-0.0009532411684526068,0.001548417417223227,0.002072858211996903,-0.0009443287207537234,0.0016705490217197704
0.0001690668680949437,0.0036314184976280342,-0.0023364840235782225,0.0007812735766375312,0.0010079183962347737,0.003727515363684302,-0.0005905169810590248,-0.0007967256774565276,0.001173013141827812,0.002703261958154062,-0.0011908056990895862,0.000153148258729396,-0.0026376325473119293,0.0014199054732407948,-0.001156258361343325,0.003415548365754724,-0.0013546279755498642,-0.000969834834485045,0.004842521809088492
-0.00031242732028958917,-0.0005836686445096597,-0.0017399704751947496,-0.0009805976058454313,0.001959651014528417,0.001587440964378245,5.46121068940279e-05,-0.001797330876907822,-9.163233718952974e-05,-0.002228465300668128,-0.0005617848284740591,0.00037548469356087647,0.002576163814171032,-0.00031846813953703864,-0.0007453570356921631,-0.001346653560593669,-0.00031732661529305196,-0.0013882522517120455,0.00013679335417883672
-0.0003363602324411544,-0.002218215867930537,-0.005096663618953372,0.0015267171314113453,0.0019258248101071327,0.004463442591473237,0.0016808949391919285,-0.0027282258819418034,0.003493171100056552,0.0023782182487192493,0.0014763169248014454,-0.002808326812209315,-0.0005290451242183182,-0.0006865429563891932,-0.0005538863154309157,0.0023252018780624273,-0.0012293279065638445,-0.0025537847999620444,-0.0027035611796721493
0.004052367046671053,0.0009287068062389167,-0.0025173529792139,-0.0010036491070316454,-0.0009684023219385459,0.0009258480940778599,-0.00041545393547199824,0.0007810899276814985,8.233832467304489e-05,-0.0037456969207506317,0.003008023012067291,-0.0030875567286223126,0.0019359555645504182,0.0020678336737023767,-7.500027349627976e-05,0.0002676050507331054,0.0006957082657774746,-0.0007142730136013202,-0.002264318635488839
-0.0011024044183070571,-0.002686711412971983,0.0011908275919546873,-0.0017867221320257659,0.00013357884268227883,0.0005461914737675014,-0.0008685038638745585,0.0006315809657097139,0.0020993347816221364,-0.00019313234437750546,-0.0017655540181651245,-0.0031699639761229004,0.0008518395946559143,0.00021773486204392333,-0.001979777852097392,0.004127999177572179,0.0029229606450689146,0.0005540694542616312,0.0027692418984641533
-0.0005477556578286891,0.001099430587161815,0.0014465084694226167,0.0004045940978096049,0.0019582331078567246,-0.004148807132769961,-0.0008205907474063304,8.736873121794898e-05,0.0006105326620395019,0.0010763743228160367,0.000460581060423107,0.0008875367441062091,0.0010475656338879784,-0.0019869760456188925,0.0004139680998785508,0.004268053010721781,0.0007107124262416723,-0.0016122575712108217,0.0007566873283558506
-0.0015327715510668918,0.001304461785132967,-0.0015080091227583248,0.0007934221606269115,-0.001253715724123637,0.003915305820593825,0.004143764092466753,-0.0015915749755285296,0.0004872140463491963,-0.0008157148919773275,-0.0007214726448395825,0.0015397281655803825,0.0006281171485281475,0.0013572508522829447,-0.002569992654573634,0.0010048045593054765,-8.11314880557037e-05,-0.0010892211002629414,0.0002718924964150589
0.0013891234073247416,-0.00014176239754138168,-0.0010896652907570296,0.000628551808798053,0.0013480592778534637,0.0010821646705624329,-0.0017403118636484926,0.0009400276530200967,-0.0013899813256560303,-0.0014415993678525264,0.0005382477211520786,-0.0007589935283721072,0.00498605158573478,0.0008502592451162412,3.489019771021647e-05,0.0017343725480397103,-0.0034434066564932773,-0.0018831650004884233,-0.0018818967691143869
0.0019514201188600068,-0.0012128088864548404,-0.00333694337608864,0.00130427023108822,0.001874479995111529,0.00020631950649751475,-0.0017219507378062025,0.0020054437289917133,0.0045103773993895695,0.00032309054620059707,0.004671139713633013,-0.002441613194979858,0.00027435106099230603,-0.0011128083362621315,0.0033390618282142445,0.002486133908903146,0.0009845884663035878,0.00020031758207212885,0.0006006064025618586
-0.0007769354554919476,-0.0007498613041642645,-0.0011953568744756653,-0.00037929193174533515,0.0016833565116647943,-0.0030002915778622194,-0.001594616204847121,0.0003798985630994384,-0.00032163826580293317,-0.0028165582315802626,-0.0019505696564727179,0.005093138804908508,0.003051865164429307,0.0004542920787303571,-0.00015721714492723603,0.0019280746138546168,-4.751152268486379e-06,0.0038824703335700404,-0.0016999342315233354
0.002529192558179655,0.0010325895940570128,0.0003410810857774066,0.002607969923828142,0.0027167052267037806,0.0019140348371992702,-0.001303608600358072,-0.0006872965291088778,0.0010608044200425021,0.0029502949333924853,-0.0008651382463158346,-0.001540848798648917,-0.0004381508250307429,-0.0006878793011483709,-0.0006714883446397843,0.0011219023714033219,0.0022328551575739692,-0.0028306442895643974,-0.00016180577243373622
0.00048474006684887176,0.000695683678866713,-0.0024829211605801875,0.00149208746310033,0.0015819787708939493,0.0021044285252249215,0.0034640026775996703,-0.000475575520961194,0.0029445423682498977,0.00016616098811852228,-0.0025396549710216187,-0.0018881212927252024,-0.0027078411008376433,-0.0018405736405080098,0.00029582991208952045,-0.0022477905773121915,0.00040648436625257827,0.0009695888912513069,-0.0013160058957877735
0.0004521958656747013,0.0005044524993457261,-0.0014809300179797146,-0.0004948430862746072,0.0008691217829826871,-0.0023618173836461157,-0.0010084994032969927,-0.00025705644022374854,-0.0004855830261879093,0.001132379960472442,0.0020936046033994166,0.0024363501518078878,-0.0011849470586967324,0.0007543598688839245,0.0015971989872280137,-0.0021373471094724705,0.0023770608912961526,0.002065367653577081,-0.0043622931750216766
-0.0018178085223174583,-0.0016359606916372612,-0.004935306127940511,0.00024347770075949332,-0.002156940642902896,0.001856510222624811,0.0019503124445950665,-0.0003879335036951931,-0.003482440055058129,0.0005227338489560339,-4.223480424796433e-05,0.00031295866760705466,-0.0015936369169651586,0.00203079582741142,-0.0006887681830771656,0.000715923406285595,-0.0038173257282214127,0.004154236490389567,-0.000313661763115263
0.002897561376233346,0.001674753738634972,0.0008218696238133994,0.001015270302280947,0.0002432424224899743,-0.00034103693971347903,0.001831154549352897,0.0023173070330947338,0.0008520439324785641,0.00014981972317748516,0.002091842831867007,-0.0008504362351545485,0.000146048973546764,0.002022311170171888,-0.0002150211074510203,0.0018583139547256006,0.0003191983898798075,0.0003920023669521232,-0.003135989792966201
0.001168806683134853,-0.0010164231675561135,-0.0013034023630354244,-0.0044819381910376705,-0.0011295599643377876,0.0003565113178665769,-0.005903163684589074,-0.002530924597548969,-0.000896132105544002,0.0011670442532380958,-0.0007950618872234786,-0.0024887948158056027,0.0030408962792453174,-0.006687111414323517,0.0038376072161990025,-0.0017674985090437786,0.0026713125326683763,0.003062537311338165,-0.0033247968672494833
-0.0030207270240389613,-0.001607856101839175,-0.004156671112623182,0.00045429136085831605,0.0033704364957495582,0.0009746824055707449,0.0004595840067772095,-0.0006864227833430431,-0.0008715786394185843,0.0014943266250254735,-0.0033786430801855875,0.0057014546015121065,0.001293920341595238,-0.0010712810610794949,-0.00021220941967716708,0.0013093326942844644,0.00027637886955934383,0.0020244811752593204,0.001486666796535544
0.002827884310642075,-0.0005211892681207575,0.00034179860821562585,0.000980871676185808,-0.00045084407820991386,0.0023749435735481864,0.0004319902168475365,0.00017587637606456937,-0.0030524347583999294,0.0015704149358992247,1.9687385514378636e-05,0.0007783593287776905,0.00460409178140021,0.0024444510677215795,0.0006539111040740033,-0.0009920594374621698,0.0009413064943477687,0.00094550539264111,0.0010172499126750887
-0.00011420269425244696,-2.6559314404815314e-05,0.00038905615585855337,0.002721895110462634,0.0010656408638444236,-0.0012944172827521324,-4.040484938324607e-05,-0.0004939238476709068,-0.0050466407851820876,0.00020243987045217066,-0.0009974214403987033,0.0006369535561241088,0.0033828772026921116,0.0031762435958375195,-0.001338914743576541,0.0038655798564815433,-0.0006857479351542329,-0.0007265369109217549,0.00018948305588300236
-0.0007188420967358386,0.0008163068027607513,0.002513011101033467,-0.0009049748214728243,0.0015594447832561502,0.0028800061352671127,-0.0006769108684256559,-0.0005499699369375128,0.0006225716099948029,7.925241298043431e-05,-0.0015317587038294847,0.0012673684569537824,0.00034687651054990723,-0.0008636542302110202,0.0006502964661719578,-0.0010007331483914154,0.0010630224629856776,0.0002781589504529489,0.00016177947913348286
0.0037091395377404925,0.003913986425572462,0.001701348021966749,-0.0015812250297134903,-2.6850442949232806e-05,-0.0008299973816903443,-0.00013199203161808992,-0.0021483978571875187,0.00035692341915258236,0.0052040963573282105,-0.0013761730118986807,0.0011013636136238682,-0.002428495283336484,0.001963959140729011,0.000661290711207464,0.0030656160970630388,-0.004471294183655586,-0.0009625244937088916,0.0025661824484291273
-0.004504035860561641,-0.002679193812401302,0.00032801708646224996,0.002145434942267058,0.0019683649766930526,0.001185450038094333,-0.0003447731881241606,0.0007168284032611059,4.842890923986765e-05,-0.002851863464347999,0.003560622045522396,-0.005141793417635472,0.0007467591547038249,0.0013381134800685218,-0.0006322960732206646,0.002946521441145689,0.0017082421959732344,-0.0017194181461158908,-0.0007548337326379145
0.001409471475765874,0.0021517843518098286,0.0008932030523232154,-0.001281151407283559,-0.0039025944440042237,-0.0002906567930060178,-0.0005115928506115302,0.0016064259823874885,-0.00037048577629625654,0.0021842349915118147,0.0018545437033039409,0.0022355754151632185,0.00592741065222465,0.0023175119926050944,0.0010083832516568074,-0.00044288493334622463,-3.277466626843393e-05,-0.00038390718128323604,0.0002856313973239913
-0.0018620849301492174,0.0023960756925037615,0.0008427523366301685,0.001313181558372116,-0.00234254127835634,0.0004125941424349707,0.0027737566343088026,-0.0010494082317961681,0.0024389482803455144,0.0016854172591211605,-0.00032744782591949694,-0.00438560168784666,0.00020118296414176022,0.001829682879016923,-0.0020377220319175333,-0.002189237502103316,0.0012465086573190075,0.0008563149387826179,-0.0014034981512629785
0.0016109645693923493,-0.0014938912847858273,0.0016915325815526436,-0.0010085292331538309,0.0025226068516718864,0.003755814690937902,-0.001806772250492464,-0.0005107471085222723,0.001526603555923938,0.0004287816242598056,0.0005896405117821112,0.002885935975520482,0.0030455453162099764,-0.0005731574840620902,0.001226369512629961,0.001741387725957382,0.0007885458571711507,-0.0008365318958227559,0.00038892420729439944
-0.001265962440796785,0.000562507326322268,0.0031119381583767747,0.0013581866644498024,0.0008036781155248161,-0.0009164637980419656,0.0005764114113154759,-0.001673230935474879,-0.00041831303701545983,0.00010623590711994549,0.00048504226716200566,0.0004823322651143744,0.002784746780914683,0.00238924119039551,0.0015186573394903094,0.0014969112719332934,-0.001752137140851748,0.0001953770855716909,0.0013866140722151843
0.001887291607896919,-0.0018114383980445225,-0.003177671957463468,0.0005277197777319516,1.3292100667936026e-05,-0.0014108518518536135,0.0006090021859724358,-0.0010817926714942441,-0.0005726714175111404,-0.0009061575577475483,-0.00018559818128120338,0.0007313832162862723,-0.002864594671000828,0.0018599393151161345,0.003634026188716784,-0.002608184148586641,-0.004152607953309557,0.003591851895994352,-0.0017700345929036923
0.001997469311330137,-0.00014410199006830273,-0.004653248089379455,-0.004275380679910144,0.0011679997909782463,0.003482354623691643,-0.002753521088105747,0.00073478845193928,-0.0019057509831125264,0.0023054548438062993,0.003205566506798486,-0.0015743696897272345,-0.002029620238289377,-0.0015944616932383748,-0.001312649013219161,-0.0021804290415041784,0.000333225197166178,-0.0003721938421987739,-0.0012061787858966661
0.0015906389463477752,0.0010241683405394467,-0.003720375763820697,-0.0011157813245695996,0.002635968394790164,0.004366522797347541,-0.0008816261388635872,-0.001444955169421361,-0.0016515580046186182,0.0011731637517065534,0.0006554620347114243,-0.0030000953301453815,0.0009201612089914792,-0.002640464757217856,-0.00029363702346519986,0.0011552010766796802,-0.0019509002282484598,0.00046149310945192517,-0.000504377810369502
-0.0031206953759751192,0.003934120387769263,-0.0030594944874278163,-0.005804531750419823,0.003257536533646942,-0.0002035418666387038,0.00018226024260119503,0.003551784093874873,0.0022593701524438003,-0.0009069578071589132,-0.0008831889751997376,-0.0009973667328288137,-0.0032561967159299822,0.0007750505492731577,-0.0033560437973097854,-0.006312069977345113,-0.0020017652788042292,-0.00010911156941500563,-0.0004873438690171871
0.0014835585395548212,-0.0003004899802863413,0.0010278965618555674,0.000592769743658422,0.0008973401487114498,0.0008452012634904191,0.0007116578875614244,-0.0012617306070222042,6.180189830267034e-05,0.0012378282118428784,0.0008891697816250999,-0.0047716592151068275,6.409722840064237e-05,-0.000875233953780821,0.0010140506152144417,0.0009895170440017507,0.004519404349757775,0.002620252150525944,0.0002392358753068111
-0.0014058790768016432,-0.0031532533484551185,-0.0037199245825228202,-3.8141821543658514e-05,0.0006586245552212947,-0.0006427610592375199,0.00019359281813027086,-0.002207255653276451,-0.0024758231934921215,0.0014252727194194767,0.0022055846411835815,0.0004752326741871271,-0.0004128479144511929,0.002859559163196171,-0.002430461421988006,0.0010848144683188925,0.0015782281431112716,-0.003829568585590252,-0.001236483499063087
0.0006151554151557183,-0.002171822503243769,0.0007618743517915933,0.00037109367342271605,0.001530607114194981,-0.0058933480664385305,0.0018584462755934133,0.00015087085467858254,0.0006474216086871194,0.0009431271254144031,-0.0002425388090180182,0.0001280046430029636,-0.0028818528150118894,-0.0008662781949830441,-0.001962735781850433,-0.00047841305051634714,0.0016919005793204747,-0.00019855476261798296,0.001875251137033159
0.0058196327508241745,0.002898919765970728,0.00018022242655448245,-0.0038015499759894707,-0.0020843988043416817,-0.00025940190863152135,0.0034373909050372576,-0.0018841420878619346,0.00042781971578866935,-0.0002830972386611413,0.0022198264237756945,0.001585111311538716,-4.080913898601241e-05,-0.0010285288003959137,-0.00041033961062856574,0.0031500814571335705,-0.0012921591695439405,-0.0003444961423958403,-0.00027651104770125203
-0.0020906543849570727,0.0017287501802428227,3.8094519114678596e-05,-0.00022106044087525463,0.003055834202545574,0.0026410182112008213,0.000723467161392279,0.0018600784049191833,0.0001143504186789401,-0.0014431081966891398,0.004385732252352051,-0.0009274348213706476,0.00048794213486168535,-0.0012736496917159165,-0.0005325074914854139,0.0008948138363681919,-0.0041386755817820154,-0.0006395366283947489,-0.0045991018729785735
0.0012580807009499643,-0.00152658823957737,-0.00023591819870999426,-0.0009674884025084402,-0.0002516558701928142,0.003857316292868319,-0.0009319764924985835,-0.0007550186627111487,0.0023936313586885626,0.00047253588658535635,0.0004634659349982401,-0.0027239626096941185,0.000961602540132612,-0.000782683499611472,0.00011689661356452961,-0.0013913682533220155,0.0013844737956628045,0.003992205207139408,0.0013368995554047425
0.0007494295303995234,-0.0029620122769396804,-0.0011432762701472621,-0.0016940061051681867,0.0019595810799280006,0.0031659987421019625,0.0041913740908063645,0.0004372529038431554,0.0008315091309811775,-0.002047201588842889,-0.0038408791735106847,0.0008934287537655297,-0.0038814552277233096,0.0006023250946953244,-0.0004950361002541812,-0.0001479668328231125,0.0008769524336829541,0.0004031492566323388,-0.004465137856386917
-0.0011322801607022593,-0.0015204875530097685,0.000593681382792651,-0.0019837687367005815,-0.0019305208263356356,0.0023754336040953485,0.0025913266948304446,-0.0011596264202656415,0.002309242693549467,-0.0018678449157136599,-0.00035784826460132037,0.001193098448207973,-0.0029913079664091826,-0.0028011770838789214,0.0026240314355463253,-0.0023943639684535977,0.00016025689438277553,0.0022886232326385105,-0.0004469507820996764
0.0005336069837293105,-0.0008649803269693577,0.0013674452240157004,-5.11159654128055e-05,0.0031510520160226776,-0.0003578791532710684,0.0006227524960420015,0.0017575552233502435,0.004401253388315645,0.0037614729983385287,0.0012315919058300418,0.002586024165445073,-0.0011476093676008226,-0.0010788254140817854,-0.004088871853822483,-0.00024779564367648286,0.00036872866783429066,-0.0028826861284188326,0.0005356397025379397
-0.0013771150230397341,0.001116083147204236,0.002920857086187405,0.004131042195409649,0.001916606317065271,-0.0001692270817773243,0.0028853190614435776,-0.0016925196904113752,9.502206974015825e-05,0.0022990328905309354,-0.0009837699678808462,0.0008509005131630725,-0.001687028334647653,-0.0018041999628465046,0.0027694489618373397,0.0015163186041750555,-0.0002668986396458334,0.001819730624625534,-0.0021959581153160753
-0.00012586853171775602,-0.0016577577885701928,0.00035853707427046383,0.000992135195170463,0.0010790631431642007,0.0017742554653203623,0.001354666442947909,0.0002721210260623412,0.0020720680666473615,0.0011555389744858668,0.0028209501976375504,-0.0005479329848452633,-0.0006873013926837081,0.0005514955832219885,0.003935578556750625,0.0005758003436895956,-0.0001499499402334601,0.0017070352373993061,0.004199286543147506
-0.003089883739337958,-0.0008568191400514808,-0.003276290653044999,0.0007023272427280756,-0.0023175731106898625,-0.0012167170055586386,0.0011028458801701515,-6.939630911541761e-06,0.001088363478527076,0.0004395585637577619,0.002455222821970592,-0.0019016325382893884,-0.0034731560933665773,-0.0024658394350260326,0.0001959436514285769,-0.0006840084247827397,-8.697491237380088e-05,-0.0014174767209612206,-0.0009277655942437021
-0.0017318804753206313,-0.0003451370226830179,-0.001420079042466738,-0.0021383509006033946,-0.0009251342245821775,-0.0017800218662518013,-0.0009583287844945802,-0.00036644914113377136,-0.0029323545414180027,-0.0007918628090430138,-0.0004733332644818616,0.0019165306161755785,0.0007954162858988724,-0.0012843413203646131,0.0001764417323843978,0.001420208674604338,0.0005592045683656066,0.0016111716866173706,-0.0002867337952038605
0.00031470969048025027,-1.4225331763827324e-05,0.00041015568957385667,-0.003475070816533151,-0.0016560982349827459,-0.004568693898338868,-0.00040969762752286114,-0.0004529491780917783,-0.0018512528319620121,0.00022796524197511595,-0.002925187440860893,-0.00020434470279612435,0.003976970473159457,-0.0009744843229504103,0.00452086557556633,0.002368083696754657,-0.0014092073198518722,-0.0009172671005529856,-0.00017801130154981154
0.0036059005046364984,0.0015954707636078494,0.0021697238308421474,-0.00037436692024485926,0.0022079527231150674,7.524691890892979e-05,0.0015372732152777594,0.0005300237196894078,-0.004128908262688569,-0.0028314878089936504,-0.004567537411182867,-0.002601722402427532,0.00021652850606910363,0.0017938185098432824,0.0037111286693003796,0.0029688323887494305,0.00047328995287355366,-0.001907531797335757,0.0016076235268014914
-0.0022915249526788274,0.004463680830295891,-0.0018128258824894172,-0.002681450474853184,0.0007927004065637008,0.0006924860094154571,0.0017415329295472485,0.002900688307714102,-0.0027433708721452763,-0.00025234499878012056,-0.0029756795931106003,0.0010005347661795878,-0.0005678607556506023,-0.0009420545994787105,0.0009303678033528702,0.0027188955233989048,-0.00323873592703448,-0.0026818600415602434,0.0019008392632418017
0.0004806462324556616,0.0015487204403824089,-0.0014681417565670881,-0.000655946232810107,0.0010861474847401566,-0.0007032884728233924,-0.0005064319134404001,0.00010435184425188846,0.0030618842224912194,-0.0003012439280484771,0.0014793950029548951,0.002728964618140611,-0.0024906480727331093,0.000870287334706989,0.00011460049388803027,-0.0026077289048081665,-0.0019712110859081513,0.0025856412462162332,0.0012814314311564508
0.000290440659047017,0.0020881629121702596,0.002408212177182713,-0.001599457711978247,0.002555268896562953,0.0009832417323174631,0.00012987185302667788,-1.176782180290902e-05,0.0007287228434987219,0.0008587108198799687,0.0009415122836997803,0.0002684647435617183,-0.0006580673050141306,-0.0021565144135117435,-0.005601189133063341,-0.0018273833909327152,-0.0003575557936919704,-0.0009462741132539568,-0.0008683371527345813
0.0032370769701383223,0.00034112204841158357,0.0003079913714264042,0.0006641653012176733,-0.001858322680703676,0.0007234642284275985,-0.0017863257027528813,-0.0006407181863212606,-0.00027887950348310416,-0.0019621759411988654,0.0027267736028599213,-0.0005806367732350075,0.005445486435215248,0.002385615390532138,0.0003460972111150067,-0.00384118910646956,-0.002709847717344058,0.00032746781551960417,-0.00043164515226580514
0.004147784970878208,0.0018397546109492535,0.002833933905002271,-0.0005466799602635825,-0.00584195577301284,-0.0002391898852412576,0.0026135925146381655,0.0029411980050346857,-0.00034300537237735027,-0.00018376687977957228,-0.0018810228479206796,-0.0005349764921919756,0.0005682258169229044,0.0022188710895241232,0.0034671867638912794,0.0005049812367794828,0.000136753585477218,-0.0001986414852412091,-0.004202973338919419
-0.0028234480656795027,0.0014457557320576824,-0.0004407382923397031,-0.0007389481718189569,0.0017968584436895017,-0.001507920371765205,-0.0014944729930346477,0.000743657651004592,2.0730544573207783e-05,-0.001594838295482706,-0.0008163264504186592,0.0034233714637196978,0.0006232478843311923,0.00020295253061743297,-0.0043985958887612815,0.00043378334686535244,0.0013382163324009324,0.0027152694252034286,0.0026095905659330003
0.0005610579162644196,0.0020081821259955814,-0.0013654765774767134,0.004821322414190008,-0.002464627576081711,0.0007538494292061831,0.002023613404897309,0.0011856392081222987,-0.002481517989972854,0.0026612692782363376,-8.562880175550938e-05,0.0028768320534627422,0.0021507055986804665,-0.0007661827022949794,-0.00046630174195800694,-0.001258223250989417,0.0018048340377321902,-0.0008684218014899217,-0.0015496475465573219
0.0013026933067142635,0.00032923255495869716,0.0032590439093813073,-0.0017087270402558633,-0.00405286867893433,0.001992919981033165,-0.0043869454125544305,0.0025938291538869012,0.0015234809465978737,-0.002884217692700201,0.00011349386917930236,0.0003610563306200413,-0.000778463781064882,0.0007472205723136045,-0.0011511864993882645,-0.001950821588866236,0.0006694328586202079,0.0028338002637677707,0.0007310124816535354
-0.0026547722056266187,-0.002614460843869848,-0.003482488954442771,-4.743423650808639e-05,-0.0016468933189463016,0.00020776739166714458,-0.001982347489696979,0.001267639478639828,-0.001911671387530962,0.0033595065806466076,-0.0025485121222694517,-0.0009538449647469536,-0.0007025576038089252,0.002869426290585251,0.00024187926298013882,0.002196314607503284,-0.000265814961873494,-0.003670171981691524,-0.0037307653692903115
0.0018020812517197656,-0.00017521048392636661,0.0026173860387573794,-0.0004234751383022537,0.0031034465648508585,0.004114242692886912,-0.0006438072396497664,-0.0027069659435988032,0.0022133866612225684,-0.0005476186325146391,0.0015296135008662577,0.003097205446421325,-0.0007481350944631923,0.0007438875481072498,0.0009347412985781798,0.00011104005557355622,0.003069666546972385,0.002845836298800154,-0.0007121584793941468
0.001314431326667252,0.0007404541114827883,-0.0018700486529560235,-0.0007614811448381254,0.0016987492857531226,0.001528974275860016,0.0015112403036095427,-0.001463039125279106,0.0006314967428440478,-0.0006202137184995118,0.0028990179295571954,0.0011746435493578725,-0.0019749860473404065,0.0006455791221617452,0.0023568153486102517,-0.00025396786348856176,-0.003616554746176017,-0.001637564374931442,-0.0006384302071139496
-0.0002695314028992709,-0.0028646191425012388,-0.00045582327126399835,-0.000830033248270473,-0.0018883566867816002,0.001994043265421518,0.004705179557390872,-0.0004175240056772505,0.0021924961414470003,0.001430295842268159,0.001229323690319639,-0.0009026972229937575,-0.0008550485256490892,0.001588931631498825,0.0007273262186764397,0.0016198942814201268,0.0005914542595859558,0.002479912420143169,-0.0028275620502781606
0.0001012338998346384,0.002301504809214239,-0.0015264934268798443,0.0006122010758061138,0.0011042345594494138,-0.004098624898480993,2.438786165485102e-05,0.006328771176048207,0.00014694930152300015,0.0007131893005341656,0.00035707329514292845,-0.0007651887573376722,0.000729821317928601,0.0020277464083148502,-0.0012218942699281827,0.0011333089285021454,0.0036767033444747594,0.004133906983357848,0.0030079672643806435
0.0005875790619928634,-0.0012036845868247724,-0.0014737162885754152,0.002283910205008805,0.006786908654227378,-0.0017161125725981851,0.0019982628971395005,-0.0010472782344689822,-0.0004564660189902146,0.0015613788146690553,0.0005176367329531326,0.0009815360948843303,0.0019570335501066637,-0.0020361020071956067,-0.0006215454533678484,0.0008402506628071137,-0.0016942798860748443,-0.005236063669484541,0.0038325210219818146
0.00021031955241157516,-0.0013479990758215852,-0.001135258735651142,0.0021743632967222105,0.0023379641923486267,-0.0013043397690368106,-0.0003270650983387912,-4.88444482098466e-05,-0.003254363571729845,-0.0010576539496534216,-0.00022906291746670106,-0.0003134906822749549,-0.002438154988571711,0.0030325248660292713,-0.003469578501833537,0.0028916041370560617,0.0007454759323489863,0.00010413413315382622,2.8119135643427937e-05
-0.0001608201188818904,0.0018292079214917347,-0.0008250962811440547,-0.004313817735987986,0.00109583059964257,-0.0038909459743644015,-0.0003283532760300741,0.0005774261608271657,0.0009044310311758336,-0.0006831907817241746,-0.0022810610945658083,-0.0011571190819452692,0.005865999930105079,0.00025484984638377277,0.0014600729512055234,-0.0011400156738394609,-0.0038867288572843033,0.0007751902482095828,0.0017141284399800035
0.0014165048581650302,0.00043949104333615327,0.00013641687798306547,0.0015865776139871253,4.834553013696981e-06,-0.0029319415220675636,0.0008934870901302032,-0.00012217136809025513,-0.0012154215119216725,-0.0022596740321619165,-0.0028849098759742404,0.00046408014910015124,0.0017097366443094065,-0.0010351156650134812,-0.0031481848575926384,-0.002183704820109833,-0.00043060018221351387,0.002958147967185387,-9.51622080951856e-05
-0.002349441545179634,-0.0005344717888162287,-0.002234445083921189,-0.000346637228877682,-0.0003551042009011255,0.00029716956348917336,0.0021316599625493594,8.005741036317046e-05,-0.0010418188974684495,-0.001188461080962578,-0.0009144868699031453,-0.0016619470327409753,-0.00021197699787120063,0.001719758542289553,-0.0016467293878227954,-0.0022224326677457236,0.0016225085917548395,1.3185625388758856e-05,-0.0002689179873350836
-0.002864766350825376,9.571400398525807e-05,-0.0016700881556618258,-0.002120798717062246,-3.1230961445513756e-05,-0.0005840662586873878,-0.0002823215478329144,-0.00157183936974159,0.0011451528786518591,-0.0026952292184193125,-0.000211232059583785,0.00027082952718055723,0.004495426443507647,-0.0003923401866307591,-0.00246318711716811,0.0029241400487197275,0.003885288820877649,0.0007170739215922897,-0.0027577798005538525
0.00012668272578880967,-0.0006599784527126554,0.0004700656750000479,0.0038507495317977166,0.0019555247540950205,-0.001361586184700678,0.0015634981428204718,0.0012970640143884606,0.001297779728912336,-0.0009496239948062247,-0.0031665352411685927,-0.0032599654502618214,0.001395356569318014,-0.0017506126701272672,0.00015591224046745424,0.0005558923995085817,-2.366610027436563e-05,-0.00021849524533315543,-0.0020129805617880693
-0.0028792909860476056,0.00018089068511536666,0.0020965748474812444,-0.001948778922969998,-0.0038694484538079514,-0.0010725771078371816,0.0015286415733034397,0.001624844774335661,6.543649406631832e-05,0.0019125904072296448,-0.002283858866924996,0.0002660045131880705,0.004148966163865887,-0.002954683484113333,-0.002024946656747053,-0.0006016383616797062,0.00033041872527251036,-0.0004461793130433277,-0.0004567222761919628
-0.0016688161898194647,-0.0030321237794180005,0.0011799511477335514,-0.0003190668550100081,-0.001653747356867552,0.0024581627100915353,0.0016572589549148358,-0.000706107310567163,-0.0008561136182703942,0.00236391550246206,0.0010313673319397685,-0.00023320631960418217,0.0011172707833972924,0.0002509628549320646,-0.0017911220304609613,-0.00036126570186024683,0.00033832499501909135,0.00034511549475437674,-0.00031720482423581433
0.0014382146553208917,0.0010342688950835492,0.00021141338782065976,0.0033908742648715386,0.0008055446273949395,4.278209178637617e-05,0.00040654188274200174,0.0027183000972176314,0.002439798767988826,0.00022537980270523044,0.0018085858226738571,-0.0008988348974922329,0.0028076483597090853,-0.0014378135997286,0.0026558446630596806,0.0044421000801604564,-0.0012514691468128894,0.0020994561521274573,0.003653998695790485
-0.0010437934953018478,0.00049130745952163,0.0009759367526663461,0.001440284604737958,-0.0018013438664180358,-0.003157146423703438,-0.002997332392142598,0.000869286126893762,-0.003988827266291472,-0.0032048935669317055,-0.002316276251635486,-0.0005449464616271265,-0.0011823532833155886,0.0003489166928657686,-0.002325680492355145,0.0036468502510073023,0.002527446671125535,-0.0017962276108885878,0.003502610738430446
0.004595629430345912,-0.00024646541549662215,0.0026209708253721203,0.002252999602726332,-0.0011623438970589258,-2.2086432982947234e-05,0.0015225946818269945,-0.002042823231446386,-0.0007067387691745568,-0.0011351297232812733,0.002199109415786992,-0.002500953861743088,-0.0018529967614138352,-0.004540076867205592,-0.0019588476515801406,-0.0001243640402364911,-0.0012950354927631622,0.0046710276107981095,0.004850886791177402
-0.0016593037502887816,-0.0006708376535475114,0.002058077151781133,0.001239188671759049,0.0006484204645857587,0.00022907836537642765,0.0041070039785765,0.00012755948766059926,-0.0026752051745383802,-0.0032459888806429123,0.0013703272610418183,-0.0013968495151955704,0.000475699209866777,-0.0006105184482745716,0.0008235765958405001,0.00045854677902043437,-0.0028281421747243254,0.0012993107028606511,0.0019265777732397813
0.005118139726145696,-0.0014477792422051543,-0.003399709713689253,0.0015936877489634738,0.0020606421815854772,0.0006211731298381562,0.00030961192282002266,-0.00012018029920693251,-0.00046785278382349037,-0.0004230619506914877,0.001546815777014885,-0.0022721835686408043,0.0030565898611650357,0.0024403528540176815,0.001059866431796438,0.002712287143092966,-0.001604361039176227,-0.004264354975197768,0.0012387734253708669
0.0014443012080285224,0.001568080888502353,-0.0016461791363441582,-0.0019348475889496527,-0.0019899012900847623,-0.003973114914185186,-0.00024247946883288713,-0.0015699324113429612,0.0009822418847492457,0.0028046103102399252,0.0007727296158696945,0.0001654047113292065,0.0016558389024232969,0.0010018876059554314,0.00038654972142697206,-0.0003935902316925999,-0.003487729863340899,0.0018280487416370709,-0.003931621311332166
-0.0005805804527329,-0.0038974566098888006,0.0018599801497601062,-0.0014000265123059457,0.002282532804816062,0.000619354598904806,-0.0002456921762137984,0.003182518886873402,0.00034985769389215524,0.0012332353944172062,0.0009054311347195238,-0.00101697674702275,-0.002287511013936868,-0.0042919672249781635,-0.00029086750543623686,-0.00013492444491496194,0.0002443398670232424,-0.002401880536116731,0.0003310384833342877
0.0021835199959530922,-0.0010231558636604756,-5.163739327005498e-05,0.0017821040064464493,-0.0005062337934665335,-0.0005336919764541723,0.0008143779861965996,-0.005472846454244704,-0.002956228625775285,-0.000368942216717841,0.001647654048842421,-0.0005341003352869705,-0.001865845857215842,0.0004778457778525344,0.00022830521785339978,-0.0006136476985413928,-0.002047988004930759,0.0007425044819136104,0.0004375357907421128
-0.003215816953941147,0.0001998025753221968,-0.001875108778836188,-0.00020707034909073815,-0.003016953679389103,0.0016219055548647976,0.0016644556914090281,-0.0006000961327720947,-0.0024220679600163554,-0.0025843785528757886,-0.0007923730799051157,0.0018876739473126015,-0.002866839278841583,0.0016726555847952293,0.004056232818417042,0.0005122283319826315,0.0003274489427021956,0.004260318070791696,0.000523540272472473
-0.0014897308799153406,-0.0003817947071336772,-0.0010137100341671458,0.000442950079008639,-0.0025620644392353115,0.0018752009242443953,-0.0011937176179280028,0.00040292792308687785,-0.0007464331252849843,-0.0013047244378836635,0.000999493836036969,0.0020227672774335457,0.0007186996059564517,0.00030436365305398246,-0.00016394801874340323,8.480851266556251e-07,0.003356496300816822,-0.0006163948714572397,-0.0021994858568990536
-0.000520085853729728,-0.0008142942447290784,0.0009103675147297308,0.004234019399276451,0.0030756643196947903,-0.0004933751973694542,0.00037100518704870334,-7.041173693160592e-05,0.0023001378155906964,0.0012100819756798592,0.0007680125387352598,0.0019715697517338126,-0.0002915434118570139,-0.001639508498415595,0.0010335830098191924,0.0018910417639786152,0.004835622945524195,-0.0027042687524163607,-0.0028924479411536292
-0.004322636855135188,0.0013856502659240371,-0.005153281577139897,0.0006525737266514641,0.0016533099255801383,-0.0028260476281289277,0.002351917971326318,-0.0006329003774312166,0.002067464611459669,0.003986818707398652,0.001386002389739169,-0.0041983202409218165,-0.0003675664559080869,-0.0008839805178253418,0.0012285332862496739,-0.0014130146652862067,0.002844028945563072,-0.0008764418813677329,0.003002630125405397
-0.003738916870469671,-0.000972070721359893,-0.0003118681061251391,0.00024141890107373177,-0.0033883236817873535,0.0034803658491951214,-0.003792628401988552,-0.00111288829794748,0.0008067861929816751,-0.0008567639802690781,-0.0031743808576075983,0.002150094057274526,0.000413155921125413,-0.0023501837029973206,3.034817515732257e-07,-0.00035944465753333675,-0.00232198152940041,0.0023041151552613904,0.0020593989714942007
0.0006524692038640937,-0.001997357427642547,-0.0030226259891273236,0.0006511572971392416,0.0013476482883122906,0.00022342156159720278,0.0014595253500126846,0.001486600872084512,0.00018047796804314056,-0.001986426722614846,-0.0020335574013045365,-0.001990097005989779,-0.0010604976227564802,0.0011191022727629263,-0.0004729217354885017,0.00033270508720426316,-0.001473290167261579,-0.005995994156568671,-0.002010445434222026
-0.00569998080830708,0.00027335999165004044,-0.0006380193133123292,0.0012004736484278002,0.0018903849104681075,-0.0018552959751889052,0.004116704051996804,0.002067219141154756,0.0045129964901300754,-0.0009901704172143092,-0.0003357273836167705,-0.0008717840043720662,0.0025253413100734612,0.00023772463966104638,0.00031715190859306824,-0.0015752906656638023,0.0010953184221729319,0.0006831002956781737,-0.003864327476556083
-0.0004295466643229196,-0.0021917754524318185,-0.0017258446486215124,0.002425143392911634,-0.0011724741867725436,-0.0010121632766569065,0.001205406557412138,-0.0014596893809892828,0.0030291184924595383,6.024087566500016e-05,-0.002642973154730291,-0.0007427623090221359,0.0034253214613958996,0.0003363633747514592,0.0018903501836173137,0.0008990309244704008,0.003271639685260712,0.0005349108199949875,-0.0005481118478230844
-0.0032427678411336863,0.004021487230256311,0.002264115139840206,0.0020940786915943014,0.0019049682003062995,0.0018274214258842405,0.0004208885454314859,-0.0022631863413207142,0.0037035644033595293,0.0010901408358158376,-0.0016301041926669482,0.0007194707340399209,0.0006590077567316555,0.0015787268844873856,2.2437517119486564e-05,0.0025311699648728286,0.002173903778621196,-0.0029099947425845142,0.002037075411798497
0.0012805149665535511,-0.0003641040038090923,-0.001720265601990625,0.00033105960051536766,-0.001656847868613574,-0.0011094342287088941,-0.0016592509836671995,0.0028475592583125497,-0.0014535582174815525,0.0011354610084030185,0.0026076939089197423,0.0002380483193130875,-0.001367886602447955,-0.0016165291707399205,-0.004859399346975731,-0.0006456291001398368,-0.0007683583167244909,0.000989038950562203,0.004660043686972993
0.003063417551029071,-0.0001772233247756883,-2.4753343570978817e-06,-5.3975434870746845e-05,0.0015957200449612356,0.00027989745163666826,-0.0005019854374558722,0.00031207667286348016,-0.0037195671229913376,-0.0017239191140379802,0.0008348338985258761,0.002904895040197322,-0.0001901246430940597,-0.0018392146796392388,0.00190635076661097,0.0014793018665190557,-0.00047489241674049913,-0.0005290815554896302,-0.0005968138735031047
0.0013677835735518994,-0.00323692552923669,2.21220605512699e-05,0.0043992763684505,-0.00011336165993483048,-0.0007477270960796876,-0.0009367080117086954,0.000780987820765241,-0.0010909258598228637,0.0019376049047157933,0.0002541203162647838,0.0022531499666482682,-0.0021560268814138426,0.0002401466990967263,0.0034545711181513004,-0.0015418990763491694,-0.0023267972970442163,-0.00039577837873119853,-0.0009113774795642708
-0.0009311531686336919,-0.001366649266052765,0.0014509066963775948,0.0019708531006878255,-0.004577007284859535,-0.0012860058520043087,0.0008149741329112263,0.0009267900330469205,-0.0010366699899580151,-0.0029840795812247616,-0.00042262662491186634,-0.0016332421160763677,-0.001732762269379935,-0.0009266027899230972,-0.0008341604464467907,0.0015784735855320189,-0.0009315253381033768,0.0027896305065576855,0.0018295997381490882
0.003695661004088917,0.00112466415160786,-0.0017922119732954073,-0.0045428213774913575,0.001189893743807648,0.004235428004792542,-0.001112886317293144,0.00037888419765417435,0.0016442840401800225,-0.004154834818936083,-0.0008399620193633158,-0.0012693155696247636,-0.0027029049790471306,-0.00037728344701909347,0.0010781516695094753,-0.003553199715569398,-0.000624598317425511,-0.0018469146789978031,-0.0017679176048050545
-0.0028422642028093454,0.0011413398728169523,0.0007601333928020679,0.0008690817246843659,-0.0029240849782255413,0.0037887281992612914,-0.0007986070922845226,0.0014920231158119877,0.0024102326856014545,0.005751983007797264,0.0032679395695421054,0.0019763334192750706,0.0012749230952571603,-0.0003780417874767211,0.0034927471978695754,0.00019595753853613246,-0.0009348378688258611,0.0022587241151326935,-0.0008506000654849513
-0.0009400127535328528,0.0029518287241414925,-0.000992587362014214,-0.0018330376131887283,0.0007977711426125065,-0.0011863848305374407,0.002911298650183953,-0.00011882424680692838,0.003493682544978188,-0.002019897912488606,0.0004386129187310586,0.0017361760168277999,-0.0007063513791143635,4.814853825928865e-05,0.0011663841087212212,-0.0008765795454188064,0.00021749021150829976,-0.000872457553330357,0.0009649264535569304
-0.0017491188473901067,-0.0018627770558736988,0.0006724303187475912,0.00363228963470339,0.0012586932914958316,-0.0006995153318716861,0.0005931834722302982,-0.005845789813844648,0.0017080219724145192,0.001586703968606753,-0.00023679701474499992,-0.0009543793127641057,0.0048005118893075455,-0.002163430030164579,-0.001902305148725685,0.00027698938984660655,0.001422670962377976,0.00026683916307516063,0.0012314001373843592
0.0013478837748715443,-0.0010307519998993416,0.0006225020957407349,0.0006820480638751071,0.0019575967446587247,-0.001756792748559332,0.0009148158524600892,0.0006474358655488017,-0.00013135555159305218,-0.001531932151033347,0.00036429682138497345,-0.0021300906083312164,0.0006992423927249973,-0.003110669594272679,-0.0011238184383726287,0.002092172937237678,0.0024425601423501784,0.000516703516761718,-0.0006603894095066266
0.0001782909090376651,-0.002241475434306033,0.0020791353936686994,-0.0022570329294679583,-6.370844755324852e-05,-0.0004506066301261604,0.0015509312438467357,-0.0006281807516949596,0.0021503894671582526,-0.0007123533036781847,-0.0011954627859340607,6.992592064985327e-05,0.0011763270492685539,0.002561171379595231,0.0004411197087219288,0.003194870631361714,-0.0016726586133152916,-0.0009486504152173147,-0.0031742802203302825
-0.0004905505877740863,-0.003488823934065292,0.002046791016036657,0.003192855465260425,0.00034066941282854575,0.0017714178481493866,0.0009801471866247092,-0.0008969079578810219,0.0005317561013585986,-0.002571534876459519,0.0012223686332815797,0.0020743051045415154,-0.0031076908190717525,0.0001056251479188522,-0.0004935976872125399,-0.0003542679432528238,-0.0007312789981133533,-0.0018300136879183329,-0.00022393562298697457
0.0035018815607026593,-0.0020154134206164195,-0.0011529484919897577,0.0024679480563604664,-0.0007002941356999199,0.0011703818047692218,-0.0014915686284819143,-0.0005479849025945036,0.0018283557783504239,-2.399610691506686e-05,-0.002656583338614382,0.0025380497856117095,-0.0007342928059932737,0.002049975836887973,-0.0017379610486246877,0.0010359959420360443,-0.00039099632665273856,0.0030076051260177414,-0.0013152994251975976
0.00024507616066189687,-0.0009252134969414808,-0.0018133213035279835,-0.002131259367108358,-0.0023459950825157594,0.001957102286160502,0.002282816723102815,0.002985222091405761,-6.715054017510441e-05,0.0014421015353826944,0.0020476553718722403,0.0008662091755084233,0.0009125632807545252,-0.0014847075086531878,0.0027181382684743054,-0.003068814858329117,0.0006895180221483101,-0.0018717306822055666,0.0027703375482134576
-0.0004865521847706929,-0.0020799646122457755,0.0020308320716700464,-0.0013983215014364311,0.00285334446312931,0.0034900187982966177,-0.005690699818255516,-0.0014582080900405845,3.701472067589309e-05,9.699134578268262e-05,-0.0018897048649280201,-0.0007154481390183921,-0.0009149786453193592,0.0023384926997354217,0.00017890822684219287,0.0007529102401357469,0.0009369233323092623,-0.0003900841801715478,0.0003003098626770846
0.0011868571376032208,0.001264320453038591,-2.4057463155204724e-05,-3.5108134370435226e-05,-0.005313057553505558,0.0011462026344689668,0.0002366866218099966,-0.0014208235741159836,0.003341366063476315,0.005357756474838202,-0.004538499237791944,-9.54744283092489e-05,0.002249179738962396,0.001381601535354825,-0.000492604215686584,0.0008734160693422876,-0.0006558966909299368,3.590768821452776e-05,-0.0026318760628736707
0.0004118563967585176,-0.004180989279628158,-0.0023810019222656248,0.0003638152317469389,-0.0015143334472185069,-0.00022414093606581872,0.0022652426460265766,-0.001565890345948335,0.0017816861018526047,0.00037097381960624873,0.003947798720146242,0.00035384207301072685,-0.0010885741153939229,0.0008903569536015523,-0.00015108574830239286,0.0011893585540737187,-8.26254256245248e-06,-0.00010285962544516366,-0.0026979025495016914
0.0012808699277000771,-0.0012563444321292679,-0.00013963529654331303,-0.00021802897941078237,-0.00036422228049425964,-0.0021451053396450764,0.002781338557716199,0.0015886155728677468,0.001910240955422691,-0.0019115495025275558,0.0005279922020095986,-0.0009094724283405199,0.0009907870505580158,0.001545052948704641,0.0011863500499766273,-0.002247327746873423,0.0002569637302091305,0.0009319100956607839,-0.0001808567703725732
-0.0010138305119048708,0.00010798085493572377,-0.0006164702787444285,0.0002264427382631754,0.0006241381017029825,0.0010252595196006838,-0.000413791409928624,-0.001232414260629253,0.0037502889766153967,-0.00197014475557482,-0.0003496892156105218,-0.0028658135753992084,0.0012880523040996244,7.356553704085407e-05,-0.0036141170810046618,-0.0005357660406172257,0.004134198746374218,0.0008741216120411028,-0.0016569818068202658
-0.0006938932435646691,0.0007662588922239681,0.0003203710920732363,-0.00023114885661530243,-0.0010624494983448543,0.0009256264512461172,0.0013667890331281883,0.000974377384020702,-0.00020355454898775253,0.0001742976589452764,-0.0016064111366723122,0.000988736377131821,0.001115439937705089,-0.0020018184387506823,0.00027701370285047243,-0.00016719486719918045,-0.0031802938571417264,-0.00029436723699598037,-0.0014894004911165401
0.002299698136375479,-0.00047020665801639493,-0.0013338191088790084,0.0027175953965168868,-0.0007225115601757567,-0.00021287999081179317,-0.0027586452520894297,0.003843104012977354,0.002748277466826309,0.002282521110611265,-0.00298391444605048,0.001130398268530945,-0.0008279041739312906,0.0004644949638502995,0.0015587860156675672,0.0032998795961600965,6.379235633411308e-05,-0.0009339594743782293,0.004358501842328518
0.0022720427633605243,-0.002540127950774646,0.001961267915224155,4.129803534307102e-05,-0.0005510258727719645,0.0004421617693010378,0.00016674702678404278,0.0019428464445276834,-0.00015614361530079862,-0.002352422333787078,-0.0023751849117983467,0.0002516759604263085,0.000979145498844049,0.0018350263411718844,-0.0017531415104989534,-0.00017325061903677736,0.0006559800104001172,0.0031759230428725672,0.0014092252139643053
-0.0033577537823352038,0.0006861335959270778,-0.0007112627037041797,0.002282305526220254,0.0014414930193717562,-0.0006317116577775419,-0.0008395848553118957,0.0012093321577804845,0.0014944423423629738,0.002246584761853786,0.0028816287450962362,0.001034216292860495,0.0011833835482675664,0.003089205194284198,-0.00033755239009954704,-0.002361323161772697,-0.00130854516229679,-0.0006127539009243509,-0.0016030908106934004
-0.0012522829855275298,-0.0002714743023128613,-0.0002034038647201632,-0.0013350091927252744,-0.002163612366042928,-0.0013358619590799685,-0.0009960393347933979,0.001955380443750022,0.0007108127336473318,0.0020345391085256023,-0.0029298232418800575,-0.00033504179988627376,0.0015804074011666132,-0.0014008234790210505,7.512363349363365e-05,0.0004309887934379569,-0.0005145420175628787,0.0018543170681463495,0.0008216798836112092
0.0022857600249971558,0.0006243944392519163,-0.0005394051979720889,-0.00021805371670841121,-0.0028781029242847317,0.0014609443823283706,-0.0010216492717357512,0.000972735851825147,0.0028042519564332995,-0.0015451939660693806,0.002503009517814288,-0.002505314703382545,-0.0030890693988533183,-0.002404227789783065,0.0026419359504625353,-0.0008993055322524434,-0.0002174831851482149,0.0020156166115845287,-0.0006084164518079576
-0.0014712751758408193,-0.002001738363780787,-0.0011169215465209154,-0.0018315915053653614,-0.0012496660266853071,-0.0018496101868447662,0.0033325715568139924,-0.0010196902168424808,0.0008413628561649507,0.0026431821535458444,-0.0014891412014372332,1.3855322650527774e-05,0.0009839793145824413,-0.00011768286275872021,0.001265712548115345,-0.0006721281466163677,-0.0004725327435896569,-0.0011501718861359604,-0.002519762671894596
0.0013791134031139124,-0.0010340958418321698,0.0021444324853219367,0.0022246280857249807,-0.0005187964700935854,-0.0009335020625788128,-0.00097023604491785,-0.003145810701404174,-0.004111012937859476,0.0017506655133162747,0.0013607884318642125,0.0020211712387839015,0.0007653369838135691,0.0011540541119519194,0.0013792991207604343,0.0010544485982943214,0.0009842987795503587,0.0005765335712004156,-0.002177058580924746
-0.0002405173154560112,-0.0003061410509113998,0.002224950482500928,-0.00022247494135371363,-0.004728222822619032,-0.00201847836231658,0.001677446302146915,0.0024224577913084114,0.005130724992241316,-0.0029317475566707457,-0.001692833065209686,-0.0010579482716894563,-0.0010033179426978567,0.0027029832430271886,-0.0018926577277832782,0.001440243191141089,0.00110164264423773,-0.0035901214098349164,-0.001628204845845171
0.0025789458824700367,0.0006882876419473387,-0.001113757651897299,0.0006994223081397032,-0.00047107899602894714,9.97931533574084e-05,0.0033107160441988976,0.003483684122909049,-0.00042535496114538336,0.0006881179687274034,0.00028083213857866196,-0.0015198757494060172,-9.223806409937837e-05,0.0010270109349499053,0.004382297709436152,0.0016077621024782776,0.0019477413890385605,-0.00047852641235985227,-0.0013207029044443937
-0.00043427352359816715,-0.001333417055601099,0.0006681094317838166,0.0028767793309074515,-0.0022107753412605184,0.0023911728737029967,-9.735476245265531e-05,0.0016077538151885828,0.00040525843945514683,0.0024079826408719097,-0.0006792150507559159,-0.0017246214813495676,0.0032804489092966853,-0.00010074931006669347,0.0017607730883757563,0.0002067680679399499,-0.0019418985519482831,0.0017578430556630627,-0.0003228596517820796
0.001436285069407224,-0.0005370381522423053,0.0009671122579150153,0.0015027869947049936,0.00017299236551472717,-0.0004437239546734809,-0.001770226310869341,-0.0034930479459990404,-0.004657389315584898,-0.002166429639608403,-0.004658929598512044,0.000805067917072394,0.0014252258796675164,0.001059124756284736,0.00283314256152192,-0.002724692073241445,-0.00018112610100664818,0.0007643773955948696,-0.001394127609429641
-6.600786859747787e-05,0.0009143663973123653,-0.001161815372889394,-0.001069252685127799,0.001070432687557551,0.001082082606782011,0.0026778537690654047,-0.0007504920702282788,-0.0009538963525135486,-0.0032461579836291117,-0.0017412227194814561,0.0005961299414428432,-0.002738206912974793,0.0003961962715904618,0.002092327053586644,0.0005450780518786782,-0.0010802320632042563,0.0009734622034209025,-0.003380237629456159
0.0006084698345991909,-0.0011631216357322134,0.0007918830793317898,0.0011041151887072815,-0.001986476907438947,-0.007391395192303923,-0.0013892263800030565,0.0017158541735278728,-0.0031865170885606326,-0.0026744106621124945,0.0022444196853855505,0.001446413043411381,-0.0006408566706837559,-0.0010240827646805074,-0.003956817641916594,0.002812110838449231,0.0024336358132486823,0.0003647474956914922,0.001439219880100957
-0.0015656488228095813,-0.0024331287121975745,0.0007487081032781867,-9.668146162676484e-05,0.001873586450881152,-0.0024399590060325185,-0.0027987369757717477,0.0025716317164132235,0.0035278745773106713,0.002869854128298873,-0.0023771042655882017,-0.00309474899435997,-0.00021525074347448947,0.004250660221444347,0.002637774463332944,-0.0025399298505923724,-0.0021367272409483517,0.0052044332783787225,-0.0008088913396980191
0.0031106877027908732,0.00037790297496155214,-0.0035361799958510197,-0.0028740662122156277,-0.0011807165404968184,0.00022090990865118544,0.002691487147369705,-0.0006492063126253088,0.0017140041225986048,-0.002632107259691117,-0.0017713306289486575,0.002721501849358974,0.0011359928890540747,0.0002536442538977272,-0.0006471095744495801,-0.0009139721609053832,0.0008805101926812548,-0.000537402122645068,0.001783890534993119
-0.0017554206514614236,-0.0001584179625070013,0.0009533192451237203,0.0036347480217630602,-0.0016417999544553192,0.003221291120825113,-0.0009819832247659924,0.0030398013210336805,-0.0018941687680174384,-0.0024322870878754313,-0.0008265886242436809,0.00211023387371468,0.0005647013349637581,0.002803512614118802,-0.0009505266047006396,-0.0001204951511601035,7.83505023605354e-05,0.0016808247936820784,-0.0005950748146225801
-0.0026614882257978436,0.0013405646620860093,-0.00197471251767501,-0.0005912241486697418,0.0015650183651696973,-0.003823156103385281,-0.0021669828862982392,0.0006022077560354115,0.001506592180136903,-0.0003899876474830064,0.0012742599592969767,-0.003370737320856827,-0.00031395007679873443,-0.0021911273020609277,0.0017534550242754435,0.00012107375665774461,-0.0011765365908512867,0.004079466862745989,0.0008652301570236463
-0.0030596582640908775,0.00017237513199773948,-0.0017105392362218306,0.0009744840056273945,0.0012754347118853972,-0.002017640058464775,0.0008530807660990161,0.000855343115262953,0.0011185911479285775,-0.0009360141727838614,-0.0008572469732439885,0.000390066141808645,0.0008311245277836445,0.00355878376964116,0.003085756962292384,-0.0014499919847462842,-0.0007481850100515486,0.002687615533265038,-0.0005937276484283493
0.0003691060772431383,0.0011186948571657099,0.0028041833165243363,-0.0021969434328495325,-0.001164159318823013,0.003656712930861925,-0.0017894364281831829,-0.0006469027371820295,0.00196607354099247,0.00032492046364282376,-0.000735987298959982,2.3659056568249855e-05,-0.0023848640704308664,0.002915250470759448,-0.0029863934741368404,0.00297963684029123,0.004760482406274806,-0.0014094545836784147,-0.003017943488539288
0.0027829660543761073,-0.003866959217702712,0.0020080655773394972,0.0020484946134114272,-0.0009446134958179674,0.0013053714105749025,-0.002698981254234165,-0.0005152162346956633,-0.0012062149547692397,-0.0016112559329308892,-1.69826468653479e-05,0.0013648560498416523,-0.0031092842242046582,0.0018168145736084495,0.0001998156136246897,-0.0013343151229477093,0.002981182158570309,0.00197440295057814,0.0001768621743651124
-0.0033305630451284144,0.003045927032214348,-0.0013301205270492447,-0.0012515007896257077,0.002377651782014585,-0.00285204342648439,-0.002245613744527045,-9.574137830553713e-05,0.0006652662386007524,-0.001297546809320572,9.32968503587361e-05,-0.003234863654363334,-0.0006403941203831488,0.0008610081016768958,0.0033664212366869076,-0.0020384951252227796,-0.0006378976733998385,0.0011451728574964353,0.0033727383005341424
0.002154293874654502,0.0012373457436696724,-0.0006253429119552223,0.002600551335423249,-0.0008668973207047205,-0.004035187702849578,-0.0016778299215616005,-0.0005855866006096683,-0.00046493113949781214,-0.004570343292915323,-0.0012742529438534514,0.0007322084153863667,-0.004750416569353389,-0.0014367601493154366,0.0004474928605238299,0.0022920929809375394,0.0016157054651552713,4.396809767416804e-05,0.0008003742220786446
0.002015983083698755,-0.0033663154286119224,0.00043917279835367304,0.0007422567600024215,0.002515906740497723,0.004818291718937182,-0.0011705334882941422,-0.003195685438851918,0.0004547486000188471,0.0018089700004543094,-0.0007045350280299175,0.0007762240692154645,0.0005398692997187163,-0.0012310523821922152,0.0002865542024310573,-0.0020876695773922437,0.0017812755313599108,0.0037597430503309567,0.0010561347843193577
-0.0011790147338596505,0.0014037882273227904,-2.6647675693283685e-05,-0.001082102344720736,-0.0016492607601801316,0.0017871901834691283,0.000963840947293195,-0.0011465009612273173,0.0034439111018931675,-0.0019686878210946183,0.0030598974884153674,-0.0004783586401091457,0.0019199485196658027,0.0008449336672891502,0.000491826971184593,-0.0005514515623497052,-9.761810858987841e-05,0.002844183841626144,-0.0018332067298223547
-0.00013543063528671098,0.0017855745458511027,-0.0038490949505583997,0.0011451191249347288,-0.0016201525105288752,-0.0002767627040828512,0.0011560416998714997,-0.0019403754081925501,-0.0037354477874266233,-0.002305847735606697,0.0007540786843214552,-0.0005101354731897953,0.0005137820897235675,-0.0009315953713362839,-0.002779955788174033,-0.003182173689749949,-0.0011539717142445315,0.00078461474762401,0.001496338809817733
-0.0020174324136743196,0.0009364068713943845,0.002030995788075055,-0.0027884050646695764,-0.0009143828698448468,0.0013765493550250809,0.0006714107066484877,-0.00045711296464179274,-0.0011635330454106108,-0.0004782009375593019,0.0019237333771391946,0.0030487133347902495,-2.8970347880259974e-05,0.0026332116027587924,-0.004044534424196561,0.0009697520690752655,-0.0016406468557963255,1.877950844205885e-05,0.0005977608483399089
-0.0008570479649301821,0.0053912825728711315,-0.002671505672072297,0.0011265045003290063,0.002828405751261201,-0.002503482456709604,-0.00010795301710487524,-0.0020560422666033033,-0.002728184423622363,-0.0009550439540450009,-0.0008857839762776993,0.002092440217882089,0.00141300196425929,0.0025286556412772,-0.0023248947989782656,0.0004925308648861228,0.0011668145154142436,0.003703230629405106,-5.998834084263103e-05
0.0010670981125651497,0.004596318448218788,-0.0015321769471680262,-0.001095772216234762,-0.001566890485862489,-1.480031617508901e-05,-0.004534007192340956,0.0016994767986085726,0.0037820043317000956,0.0010102053371300191,-0.002124594088486934,0.0008528800124456458,0.0016703008678236918,-0.0010137753092991928,-0.0012736861557081918,-0.00010305745714942247,0.0001761780440299189,0.001994553578014694,-0.002968249905906248
-0.0013263285203673682,0.002399774832762532,-0.00022817398078050553,-0.002306384388391448,0.0003598877469267181,0.0015595016100609527,-4.7625961392360434e-05,-0.0024107150813616855,0.0014216336306996159,-0.0005551939225856836,-0.0025625954002149146,-0.003045857811174991,0.002760777430717766,-0.0016166284238827654,0.000146752104826891,-0.001982392742529078,-0.0017840898667683394,-0.002784216176795993,-0.0018180932553570617
-0.001580475034689501,0.0001313440274223035,0.0009817639397446225,0.0005785453573984254,0.0003211218865325537,0.0021175715352967,-0.0009387967028827383,-0.0001161590428858996,0.003774114920101364,0.0024220693501601684,-0.001883145741123637,-6.962131171593705e-07,-0.0006513698394193359,0.0005732010924523158,-0.0002008008762966107,0.0034466476914982846,-0.0021161034097032898,0.0011476075660417694,-0.0025582861116888104
-0.0004528789247004095,2.842187393148965e-05,-0.0018421721523568912,0.004034458594187346,-0.0004367575561174099,-0.0024476523223273556,0.00021671985337782943,-0.0010976609087393532,0.0028549448457469953,-0.00021505960092927832,-0.001878366949730147,-0.0006222157323357992,-0.0030420532113880562,0.00033334013580143623,0.0003575869268442793,-0.0007348303100765098,0.00014788875080146865,-7.031876148192862e-05,-0.0011760986737353086
-0.003830172322924479,-0.000757085574908601,0.0020684089846063113,-0.0022026521525265992,0.0010588656779329374,-0.0012127681278908237,0.004113473215766557,0.0020882253444537606,0.0023538300291243873,0.0006348477080542475,-0.001494053135656362,-4.523334574455438e-05,0.0027558508655236152,0.0011521405660137151,0.004332522353935669,-0.000535527682580577,-0.004167216795466674,0.0003854639756653475,0.0021445642760319072
0.0012894590362842098,0.002542035466719658,-0.0004618697644538902,-0.0013219453074913966,0.0013933295269463264,0.00017569043184315202,-0.001453570029820619,-0.00223608504693428,0.0029680046896636367,-0.00031907613057488826,-0.00236376007815131,-0.0028777586767448926,-0.00041188407073550887,-0.00098491904366108,0.0013104199309497012,0.0020435737255683345,0.000664781088063832,-0.003522727573734735,0.0009616436201130051
-0.0004722005334798922,-0.0005421771847604043,-0.003116209638978376,-0.0017799754786970308,-0.001148744841598741,-1.9877051894897392e-05,0.0016807348417253324,0.004029204796080588,0.0018126610820432037,0.0015709458444492415,0.002519468535181512,-0.0007584891268983657,0.002150541276329632,0.004175225369386012,-0.0018028445538218712,-0.0011337982390003444,-0.003508129595238737,-0.0005565453561052292,-0.0004340720259495981
0.004389196686140131,-0.0007896267835563223,-0.0006030326741960856,-0.0011597128788848985,-0.002886504034631861,0.0009617129577247489,4.2900875958996825e-05,0.0019154884880967324,0.0016644674281565209,-0.00061522885551337,-0.0003667416230684833,-0.0009018470462939213,-0.0009353265827371047,-0.005322581760596583,0.0008636929255405055,0.002041648899773346,0.0004885400089066305,0.0008465740217529869,-0.001973398013948558
-0.00415628399945815,0.000791268860746823,0.002459145495460976,0.0022780013190400353,-0.0009273510138471627,0.0025100559402737445,-0.0008692859737450438,0.0013835172316009226,-0.002329977971321572,0.0015585424328394054,0.0007753185666612389,0.00252657038431737,-0.0017246919757433572,-0.00034931687332973537,0.0028977422674828714,0.0012191397738704063,0.0007057399525732652,0.0014562432277366241,0.0009324296838467694
-0.0014604650622417282,0.0016641075060923752,-0.00047534212422902135,-0.0012369576549624193,0.0008359820567546777,0.0035202147095142267,0.0011011323739486686,-0.002197098761969029,-0.0010264207924011212,-0.0007476440980506625,-0.004049279926730704,-0.0009659823251951874,0.002570000588656128,0.0019460745841620617,0.0022027943640145764,0.0001368321295353141,0.0003287271768963089,-0.000529276099827113,-0.00230909366081794
0.0015792424296545134,0.0014494977803532188,0.0038948014156673654,-0.0035003858013762075,-0.00019038785114838805,0.002133016435324285,0.003149901152802297,-0.0009786284115878396,0.0005784288515153394,-0.0020417505041302694,-0.0011049639529506603,-0.0017874712498483802,-6.852180409974449e-05,-0.00023577172536073203,-0.002003378185079935,-0.001132250933364547,0.002443950973611673,0.0010084664006194542,0.0014857647050628901
-0.002915646699663602,-5.0949056916910525e-05,-0.0017685458104152554,0.003580868464238597,0.0010690950439116377,0.00171939337335426,-0.004324106166352263,-0.002559673283080411,0.0012381479857477163,0.0010833653112315616,-0.0017728026935659236,-0.00024726681804374304,0.0019595716535725045,-0.0032486040565091415,-0.004900292842197191,-0.0014799956949303715,-0.0017219952229657973,0.00035986615341678966,-0.0006669343158559653
0.00028541308742613473,0.003497399842262229,0.00024259611518884575,-0.0014917159258985252,-0.0017857222296346449,0.00028355530022199717,0.003193040443212199,-0.00034603026862720115,-0.0010627815758621957,0.00013796492851806243,-0.0006856010529727904,0.0014266028790743972,-0.0007960937583938444,0.0009645325868191677,0.0013907591847879322,0.0022737613836076916,-0.0019474385659652416,-0.002130471491605457,0.003399146615653864
6.549726176894592e-05,-0.0032467111746084906,-8.015859126578752e-05,0.0007533752939541359,-0.00019586018496705305,-0.0008019941937633605,-0.0033120417568424545,0.0016516626812077928,-0.0010352496732101485,-0.0007750535231168274,-0.00026496591229291714,-0.0006799551365716833,0.002572537178023329,-0.0009122959366956793,-0.00259479478039279,-0.0024719632217031543,0.0030959655896907203,0.002952084172179311,-0.0008075199849291724
0.0013673902426723462,-0.0023439053595097005,-0.002358482930066842,-0.0012297220658105824,-0.00034872109794243327,0.000649760850909774,8.026828797715712e-06,-0.002294334398033203,-0.0010857180166508752,-0.0020264408370849756,0.0003303241315076467,-0.0008495403942284314,-0.0023869648372659455,-0.0018271283215596584,-4.8390383841859695e-06,-0.0016348171389204448,-0.001953176142383987,0.001813541266142596,-0.0013931685839031005
0.00045343920225605894,0.000494240358727897,-0.0002756083746066245,0.0006678698392534335,0.0022847114729452013,-0.0018265464264982808,-0.0008614182588597485,-0.002146152898019419,0.001079909957674646,-0.000514784484208356,0.0025730437160721422,-0.003708844963430918,0.00030999182991942796,-0.0010956441209847444,-0.005205628337217448,-0.0005720753740355696,0.002403107734724316,-0.0001518403691137018,7.955500268110087e-05
-0.0025022414778204803,0.0017105914259908227,-0.0031284470163815154,0.0008390076614162233,-0.0029471079144122794,0.001382514366060323,0.000802846460187907,-0.0011264136988686387,0.00021575904454098992,0.0007662504986214102,0.0002919763214348559,0.0030143877811636883,0.0003221580299929709,0.0021330862603931343,-0.0002887800696663302,0.0013026982473467843,-0.0009461848336427378,-0.0014100912688891128,-0.0026473612334503393
0.00034132890553230247,-0.0019440995758637802,-0.0003045749678398718,2.197339931762754e-05,-0.0004294491211921442,-0.0011934898340734672,0.0016176685227926326,8.047889667089331e-05,0.0002960349326787279,-0.0003731917613894625,0.0005167173106407326,-0.0004138368733735686,0.00041088036834806686,-0.0007209168172496413,-0.0015751445047887174,0.0005122255559185397,0.0003967554317753899,0.0004190680764587122,-0.0026884741622514785
-0.002017266689331354,0.000860985594946227,-0.005062928306620224,0.002241621363233094,-0.0011324653345131898,-0.0022491996340306274,0.0028423111762706046,-0.0018853007426706408,0.0013953025583582715,-0.0009778771379361313,-0.001276867671322015,0.0003018655401397656,-0.002148180439298382,-0.0013761598808023862,-0.0022646483489698823,0.0004218692599229907,-0.003235787643065036,-0.003940177978729837,0.002618395861454229
0.0004001344197458249,-8.71044574449864e-05,-0.0031040400255351965,5.1631034196431535e-05,-0.0010623521862610206,-0.003403457358449468,-0.0015272796533045503,0.0018512959132712323,0.0025013211405524147,-0.0025140322962385756,0.0012644701862933347,0.004342598928089751,-0.0017442854885001118,8.483436245704416e-05,-0.0005440380041368181,-0.0029422842444701705,0.004188887624416774,0.0008074089992242479,0.0027377232671292155
-0.0007462744166730542,2.949597537410745e-05,0.00012228617239137593,-0.00018551712207050372,0.0025979578734821895,-0.00020542524606412686,0.0011606015779669226,-0.00141687438049705,0.0003788668015936491,0.0002284763148407821,-0.00039389824666676004,0.0006999170077689684,-0.0011943127160532932,-0.0013137715954779886,0.0033681624871393042,-0.001289934832020823,0.0009313771743470049,-0.0010064239852470187,-0.0029911552139010684
0.0010851358682335774,-0.0009558558494240628,-8.160999038888098e-05,-0.0023428629488091023,-0.0029500862556614826,0.003869427331418545,-0.0008626654484826746,-0.00044970522866410187,-0.0017928416656221573,0.00037356634605405887,0.003254180573394645,-0.0010114021354942274,0.003362367503687308,0.0029638330691029702,-0.0017575585543496786,-0.000171564785402202,0.0005929321075257762,-0.0030898516862101822,0.0021927708722956204
-0.0031154728559862383,0.0018993543457058676,-0.0008374764417494396,-0.0006820764801429912,-0.0013506522682465761,-0.000786431099195683,0.001614385039029097,0.0020498421316110372,-0.0043235494743882755,-0.0031037462225947552,0.0021553562400055595,0.00012329766436950355,-0.0022043666960380203,-0.0016076122921203223,-0.0017152206170011467,-0.00012699950972622058,-0.0003857584062924425,0.00249455979963382,-0.00023091634976981504
-0.003231450115484548,-0.0006143640622835605,0.002900773349010599,0.0012157942184143284,-0.0030783522577800602,-0.00011791283848519553,0.00011130181378146123,-0.0016114983137752688,0.001118342070884219,-0.0032425325808285834,-0.0018679740231990793,0.002922305934449487,0.0002773457221658321,0.003193427894704287,0.0026443185733737227,-0.00022768183940985923,0.0015334323586280788,-0.001112265601496987,0.0005871957603781116
-0.000281098967179688,0.0021139907881864498,0.0018062266767332707,-0.0002456391666989464,-0.00399872143142334,0.002314020649406156,-0.00269062071305272,0.0006924375997420458,0.0037126955588669412,0.0009582981861046682,-0.0036792289967093896,-0.002521950881290301,-0.0008207921513521422,0.000989024344549286,0.003755834097526248,0.0007466676204907248,0.001229855985236744,-0.0067568912430312645,0.0033241765515156004
-0.001351821787402394,-0.0007904312705049865,-3.767865883783808e-05,0.00019422616994175544,-0.0015008414501501526,0.001505216809696382,0.002422400574722741,0.0002304023362619704,0.0027951300497174466,0.002738408525290631,-0.001481399254670093,-0.0006997976247975617,-0.0007830764109267132,0.0026331558777671566,0.0007028701516142451,0.0017343232336236598,-0.0016295892991075131,0.000411091493508898,0.00043140204435487405
-0.0020226204706894945,0.0007729615740833806,0.002742947274489279,0.001450092327083559,-0.0012457576061853778,-0.003223228294366372,-0.00049509573188127,-0.0009410089216703741,-0.0003547909381015338,0.0021532614120677667,-0.0003630380623096101,0.0016337507002631313,0.0007410459003413779,-0.0006710389851586903,0.000655746442563361,-0.002289640060507406,-0.0009537216912871235,-0.0021378345508873964,0.0008425687453359044
0.0004207918185007063,-0.0008006197035395103,0.0004577160575848467,-9.620625335347494e-05,-0.0016843832665733147,-0.003457615913596949,0.0009013651640016455,0.001890339518319524,-2.8548064890231184e-05,-0.0007247396910324693,0.000490156946891473,-0.001275285578910181,-0.00010554383307182068,-0.002696646251029565,0.0020158973222111866,0.0018368432725259691,3.854310989449803e-05,0.0016833092955661475,-0.0018552731187900923
-0.0001602611475180225,0.00012829256815167454,0.0005705259839205477,0.0006966616657379385,0.0018015098300599535,0.0008107434420328675,-0.0019413302630773637,-0.000791428607633958,0.003804657775154206,-0.004012141123232976,0.00195782267741393,-0.0007913506310220172,0.002258298447377429,-0.002579682461650459,-0.00041585878544256024,0.0023758500511519435,-0.001526584112800015,0.0017042397809712364,-0.0015877399933598396
3.8508656466037174e-05,-0.0012842090555073692,8.365393338434138e-05,0.0019699017021569684,0.002861731405818818,-0.00038946108079414586,0.0012827993635491615,0.0034445898242534247,0.0004680128741083271,0.001101465194180715,-0.002934059364918997,-0.0011516049489779378,-0.00015298083361497535,-0.002202921933125592,-5.906461957770144e-05,-0.0012463624156886669,-0.0027032278761119897,0.0016560096973493761,0.00020681798230820798
0.00032170767226924924,0.0008228116116232617,0.003627887086969417,0.0034815343033345165,-0.0031634304324091125,0.00011040195752754291,-0.0003446656232743984,-0.0003773278684878369,-0.0010061085020099754,0.001896809826300624,-0.002503304634430498,0.00460086049910024,-0.0019559585139559675,-0.002917627163283655,0.00033746848007605763,-0.0014804848340427765,0.0014555615573777318,-0.002839440720396833,0.00297565146177555
0.0021271742144353943,-0.0002444515163871564,0.0023573886351320817,0.004123201515344623,-0.0037271138457068117,0.0015619814314053225,-0.0004364663387666829,-0.004053831788628321,0.0035538068587731694,-0.001746479635750243,0.0012859131268188285,0.0004995832188151307,0.0002743877569827033,0.0012250021611626412,-0.0011920072195860051,-0.0023374318876688027,0.002549590181885059,-0.004879814049199894,-0.0024512064867439187
-0.000906913240254091,-0.0014855976523026864,-0.001598547986754334,-0.003200494595385515,0.0036041567880590155,-0.00015318343499910123,-0.0022033573183482483,0.001615999953994019,0.0023220214747138876,-0.0020756308310244816,-0.0006282213093224617,0.0014973324747492931,0.0027835395543525706,0.0026426840538141022,0.0009511034862741645,-0.00014716736213951808,-0.0001127925827767601,-0.001600786191808254,0.002497515081666224
0.0016379244566070517,-0.001572781023278206,-0.0006545927283000266,0.0002231232948217605,-2.8925968874755956e-05,0.002668853788075094,0.0006299901580323443,0.00021978743837857982,-0.0008257646805863942,-0.0018112306725991511,0.0034691034607812797,4.408548309242001e-05,-0.0009057580219660249,-0.004313320872716004,0.000300121965531388,-0.0003913645984981152,-0.0019343557381168767,0.0015865692294175521,-0.0009484960959046578
0.0009872866104939147,0.001071860684530916,0.0014844654983535946,0.0021476141843869987,0.004384292542517251,0.001637380371930243,0.0007106357137811767,0.001837716754201982,-0.0006644918557391073,-0.0020376515467192117,-0.0017349404990049996,0.0014339567853426808,-0.0023287481493224323,-0.002467575295283668,8.598676468334089e-05,-4.291250225032046e-05,-0.0028425352616946588,0.0007652669021187533,-0.0012551969627645012
0.0018658184795524346,-0.002221093405048928,-0.0014111179550679814,0.0008520677506017528,-0.0019204955330853397,-0.0001625480563151846,-0.0008355283415901811,0.0014558227550569855,0.0013299243514196815,-0.0009890500118644552,-0.002347413880441273,-0.002241611827566499,-0.0030537318231578414,4.753926437620221e-05,-0.0010606038910407978,0.0034626348906299773,0.0004637996506706019,-0.0027949445782136594,-0.0015527497009940293
0.0044279561309523595,-0.0013005339168936515,-0.00023102263177795005,0.00035922766888540404,0.001707018327625741,-0.0001216451338064112,-0.0019218077482959274,0.0004865587975913284,0.0020999555157321013,-0.0001667614557430246,-0.001813592729290876,0.0015052914454536713,-0.0031589423138839714,-0.0005924926244826083,0.003739237236287374,0.0025935225462435712,7.883909859753047e-05,0.0008027211573356889,-0.000192748996225288
0.0018489119337586066,0.0016288261343105443,0.0008696212119467917,0.00020758414937656233,-0.0004468241450619995,0.001960946911564988,0.0012017839109851169,-0.0017789752059774644,-0.0019473872035022251,-0.0010374790776341001,0.002491700850602136,-0.00024886427652605434,0.0017635593082951891,-0.0011201168873107728,-0.0010032219040009924,-0.0028223188334892996,-0.00022799604729285169,0.0002913628049899417,-0.0024587754080300094
-0.0011307585389832505,0.003410692990348207,0.001957782708354775,0.00011860162739330453,-0.005353866294222977,0.00010729545688770937,-0.001396997078970407,-7.218398128725566e-05,-0.001953250566433284,0.00011768254373498185,0.0013069278932880816,-0.0028769553751913767,0.0002996005308555315,4.356362620650656e-06,-0.0018610290378337762,1.5172984599913223e-07,0.0020215335282691527,0.0011512217233157383,-0.0006093506919429365
0.002927987019519622,-0.0007544993939375639,0.00010223547391577907,-0.002742912037161755,0.00463893527407811,-0.003360966604205631,0.0020135587556068357,0.00011995157088141414,0.001267881449181968,-0.0019267852053705865,0.00044939049736610916,0.0040869302535691395,-0.002060225982922644,0.0018625367996210136,0.0016286147896298958,0.0008623298999031087,-0.0018493449206420942,-0.002224267990619689,0.00222306408288229
0.001865439677627273,-7.142510870211853e-05,-0.0015413209600963393,-0.0022727668454604224,0.0003888699378983873,0.0011998070457124406,-0.0011450428221782458,0.0019056026727851257,-0.0019190879795266556,-0.0011674194284871623,-0.00026314095281689513,0.0006739911559442926,-0.004440501229905881,0.0017921063994431042,0.0010004616265641795,-0.0003969140038678016,-0.0003649248988974203,-0.0022832951349392922,0.004104252390914612
0.0006558782143670313,0.00263263981231385,-0.0034077032265965477,-0.0014146704922427876,-3.7265777962786005e-05,-0.0006104129110875005,-0.00037610503326168307,-0.0021317661936135403,-0.0028315448795838533,-0.0020885128483028982,0.0006053896995065038,-0.0002504024992478905,-0.0013110865913680012,0.001409486249964296,-0.002433293860403787,-0.002271199015614812,-0.00019838072970062285,-0.0032761340069272604,-0.0006197969473636641
-0.0001277394518531843,-0.001091718057632448,0.002377788160340461,-0.001018035597353625,-0.0009415305681492004,-0.0017130695476708618,-0.0007581809552772084,-0.00046545644665396435,-0.0011898566851232814,0.0044580087776337285,0.0010912367117280246,0.004422238552999376,0.0004284338308657193,0.0003734568647752251,0.0010695036999378645,-0.001563797679925673,0.0017837908898688311,-0.001801434998020979,-0.0013360375008886522
-0.0030616225706461674,0.0014063922216086696,-0.002206331620130646,-0.003430473267284305,0.001674134631124337,-0.0036874308644756723,0.002712608742405295,-0.0023123768061656075,-0.001247099458693631,0.000593630176761154,-0.0028757356051263123,-0.001641829184079695,-0.001686026088755136,-0.0018150840138379221,-0.0007135348439532756,0.00234750829334609,-0.001324925225266408,0.0012459906263301397,-0.0025881517301734828
-0.0010223694786403149,-0.0005690305418543925,0.0004088988827846397,-0.0003639487703394377,-0.000744826638988734,0.00022847168367107632,-0.0023382460085040373,-0.0032069292404577564,0.0026289677112501944,0.0011080497132759776,-3.6875867123588646e-05,0.0030106411780797026,-0.002680926389193963,-0.002674021746738473,-0.0016540503332965518,-0.0030584193141104314,0.0025593669755529353,-0.0019458234896813826,0.0007378269413915912
0.0027106498163029804,-0.0014142837693848322,0.0006401200824278921,0.0014618980726377104,0.00020127076447193194,-0.002269579796898101,0.0006610658058292607,0.0026939940507999765,-0.005637301079947137,-0.003225414637258247,0.001457458324271602,-0.00073599224890463,0.0017136690147576917,-0.0008458360300964163,-0.002145547098700162,-0.0027073180317643847,0.0004207059246483643,0.0031915970262086863,0.001456503535701646
-0.001615449216735836,0.0014673765408852787,0.0017817713465242066,0.0009953265860107407,-0.00267883903378398,-0.001172433382947869,0.00048302796633810564,0.0031525215906318114,-0.0016686729691729582,0.0028158607331961625,-0.0013218640328566884,-0.00024218111832647102,7.618361826026727e-05,-0.0007817602471098124,-0.0008318682128963771,0.001059322917117024,-0.0027215490871021282,0.003612291371499925,0.0008038342765927017
-0.0027244627074047116,-0.0030036672259296546,0.002222454240759948,0.001127084634646125,0.0016559723782474123,-5.830220074279662e-05,-0.00035776296567739685,0.00029429442369816294,0.003486141238547546,0.0006602864306529746,0.001102595252974549,0.0027285789115714504,0.0019314831696442118,-0.0038978412443264714,0.0016143004120077835,0.0003938109840784305,-0.0006381735860038325,-0.00011029928057226816,-0.00099946135345559
-0.00196941774281696,0.0019130825331142927,-0.0003329969360777899,-0.0003331696880772964,0.0023619890465568024,9.035880394442247e-05,0.0009304160283654857,-0.00019067719322507512,-0.0016163615441897945,-0.0002602718621113269,-0.0016232218259807185,0.0014331097454923704,-0.0002883473932197166,0.0005178604646297385,-0.0023745748026264514,-0.0012188089138229535,-0.001390385526502475,-0.003349767773044106,0.002190478945646913
0.002396742471784618,-0.0013118804451293993,-0.0004290642637400693,0.004059015376266576,0.0029705949309940813,-0.0008084846342104393,-0.0014952107935793087,0.003906587834461095,0.0032075570890743835,0.00209879619074951,-0.002592793587492145,-0.0017124954541322427,0.00020996752999907428,0.00023675980967560403,-0.00237674003268261,0.0003104770374853882,-0.0006423101326266874,-0.0021891612151614076,0.0023707358021667854
0.0014595345371324936,-0.002295501968286968,0.0033031851586044912,-0.0012365595815151524,-0.0011198054787283642,0.004641723298747835,-0.0034774181764303685,0.00014396390755746016,0.00033427658066401833,-0.00045500924682315526,-0.0009254656172127988,-0.004133640601242789,0.00027291448494140525,-0.0005409852599537466,-0.0007219809957867639,0.0003811658981417192,0.0017066914288694425,0.0035219292185895215,-0.0030615186999761257
-0.0007352130524192746,0.0005755193752970497,0.0011826020238237147,0.0007493900033494189,-0.000616582710813073,0.0012563993419710388,0.002239141674298661,-0.0013528194298112267,-0.0009849586979114543,0.002452485579924309,-0.0015527099727186378,0.0014002386298493802,0.0008590495399219038,-0.0014999056545262949,0.004558784024035266,-0.0024279277534464336,-0.0010974541387635073,0.0006647450707874863,-0.004570293770448132
-0.0020002399971064447,-0.0009125370368665381,-0.0010670078046071043,0.0038029673513205165,0.000992584541567319,-0.0015554236852157676,-0.0033138770384975374,0.0024372791122416965,0.0008491032384688846,-0.0009674790997838859,-0.0011479925857272465,0.0005143525573945067,-0.0006131779669212262,0.00374977762832316,-0.0012698705587591546,0.0009744545015849795,0.0021321066697442006,-0.0002475872025299361,-0.001561180597242117
-0.00299360837570068,-0.002414747252047219,-0.0010063340903548317,-5.108626915436673e-05,0.0013239396168833028,0.005291166242106759,-0.0023605321230309125,0.002704670559647589,0.0007362245718653227,0.00012175568833248488,0.0012756297345784878,-0.0010438646225635977,-0.0020868763261517706,0.002267830043890315,-0.0026549983582372745,-0.0011761064453187997,0.0017267569300931322,-0.0014636359328975945,-0.0008346126586564546
0.00027126973172327695,-0.001719210060656724,0.0017836919303503614,-0.0015680066904160896,-0.0009424587321130758,-0.00040180201819555795,0.0015106265985569795,0.00026091085472179133,-0.0006227709970253941,0.00491559685468478,-0.0018443517612535547,0.00042637267424558515,0.0008993657688457185,6.715242728186653e-05,0.0016234034655348104,-0.0022591645755132375,-0.0015496629542785828,0.0009336125241271479,-0.00025429164615832576
-0.0017996108975298535,-0.002304309351487611,0.00226117348565134,0.0012949708368277702,-0.0018063654571154148,0.000931657870695438,-0.0023615217940533974,0.0008684839859492421,0.00247176725042001,0.0012505507295603197,0.0017994114142603089,0.002091438363049305,-0.0018301648363631445,-0.002065113861988557,0.002068249994065573,0.002788296573502975,0.00053768877322625,0.001988621216125525,0.0019388792167546584
-0.002203573241411159,0.001081519111785264,-0.0015053955842101547,-0.0019497146832115298,0.0003819957273728648,-0.0018160134838920469,0.002039731335345417,0.00021174397979631366,0.0001433829176986271,-0.0012064259814995788,-0.0022999005745016517,-0.005048138050753013,0.0035152340103833464,0.00027501878434351627,0.0027866831227290278,0.0013012241418342903,-4.2240638334374314e-05,-0.0007690653123877793,0.004308790554101919
-0.000876975814492197,0.000579960119426514,-0.002245793157765396,0.0012836481822091305,-0.002598858998748289,-2.1655930952495596e-05,-7.147566643415987e-05,-0.0017067471047409386,-0.006745342362870038,0.0012364279072106339,0.000268707565849819,-0.0010979235934352725,-0.0009550819157630795,-0.0006183507123994091,-0.0013798973393752746,0.0018365743900187034,-0.002162812195913643,0.00032863410429827077,0.0021005699210705255
-0.002237417506122961,-0.00011864707395088679,0.0007733696256002082,2.165245603963066e-05,0.001006950156983712,0.004464066341785594,-0.001688667864663087,0.0004021582483327331,0.002218077843233437,-0.00046959278975684473,0.00021853188740742735,0.0013468644295971447,-0.0013073669412190052,4.961931193088421e-05,0.0017579459617832402,-0.001138344589761387,0.0006855501784603632,3.730345091651986e-05,-0.0020702753036375104
0.0013924800597959449,0.0022127607568787596,-0.0012365403386171193,-0.000622889465797062,0.0013229632701447207,0.000531307697510108,0.0006400814239366757,-0.001302917720379324,-0.0026392234828542965,0.0014666203524508294,-0.0005104416949696993,-0.002352916723619422,0.005433020747401416,0.0014493261394234287,0.0013071679505158391,-0.0019880367337915725,0.0003686381556007924,-0.004567187196255848,0.0005613081034750816
0.0032427077268542878,-0.002340046603145782,0.0007279940870101411,0.0013940982705743675,-0.002217455535628498,0.002128409726799798,0.003202373532250011,-0.00019257529295277007,-0.002181479221018129,-0.0009452312601625296,-0.0005296341774858945,-0.0019897465997436767,0.00035928674249900363,-0.00014273347129020093,-0.00215597725338097,-0.0004032370321563183,-0.0032987879905427256,-0.0008312689611583598,-0.0005392771970857124
0.0014362110113747466,-0.001552775290687738,0.00157545248409361,0.0022205895329154763,-0.0005356049472067077,-0.00020931792684113605,0.004716321830306387,-0.0008967319112010988,0.002318774575003772,-0.0007788551503447606,0.000863221485258107,-0.0008462101315690375,-0.0011906144975391358,0.0001822004705080436,-0.000468242880109301,0.003545595905649303,-0.00044186779151148963,4.27539292720046e-05,0.001294073825002797
0.0004879693788993699,0.0009023345204067629,0.0010926059137758976,0.0009137370875289952,0.0004206936671264308,0.004493268174225066,0.0004868065415983882,0.0021863028508351773,0.0026133197268610226,0.0013863532692916336,0.0025168345770945283,-0.0030059082235665393,-0.0011322066664848762,0.0007355934792402894,-0.0022790383168336107,-0.002343964130017943,-0.0012266258978763207,-0.0017837992636972667,-0.0008810329293016571
0.00274416359491597,-0.0003278813342412858,-0.0001467623082908623,-0.00032115973310934196,0.001994442649044877,-0.0030809150925635797,0.0025272444707144094,0.0015064875178424717,0.00033579744895581294,0.0019967894154243795,0.0015820050602659164,-0.0032013487029504775,-0.004368784684685295,-0.0032737431129105502,0.0012682412955761645,-0.001547296621997523,-0.0029421192724218854,0.0010044820129536114,0.0008365488637860086
0.000507447196157335,0.0021324150768549854,0.002072850264707359,-0.0024708966891377267,6.54497105625471e-05,0.0006896215472854769,-0.0051331057006615876,-0.0021831059710431247,-0.0029629834893325343,-0.0012899107028719633,0.003188698967906871,0.00010084466608337257,-0.001444676042472085,-0.0022285571141400923,-0.00027668583214681395,-0.0007822012513967103,-0.00019512831047622273,0.00028173077253751573,0.0008947485712581926
0.0009204853485661602,0.0029803857236656408,-0.003074835474632057,0.004978368829744307,0.002350202352520734,0.002367868300020436,0.0032239871260990927,0.0010253428681084248,-0.0020366273622674995,0.0006107399973292953,0.004124185964414687,0.0009970219912491126,-0.0007736318315022539,0.0028914554311512373,0.0008572174706848566,-0.002985871585404083,-0.0031776359361045023,0.00029028039064742914,-0.001303610132784008
0.0007974380675096575,0.00015343029024755106,-9.188466249122142e-05,-0.0017209995435272468,-0.0020728790935009736,-0.001515082611195405,0.002662984252091412,0.001625614232557374,0.001334364762458739,0.0012207517160880972,-0.0015723181069304019,0.0005316074752986767,-8.916036472918668e-05,0.0011876524161796428,-0.003986919140136564,0.002382209495289206,-0.004457224816681195,0.00019938156014111065,0.00011595305266771206
0.0032906057793106913,-0.00018388026631411319,-0.002379105225791581,-0.0023959614659779926,-0.00045201173032927616,0.0006486957187737234,0.0011954194760591902,-0.0036626358684987573,0.001069295100673968,-0.0009933982576831586,-0.00104097009324962,0.00224110682765392,0.0009332460539089129,-0.00155163830840565,0.0037107702488807315,0.00027703894035145524,0.0011803897338834993,-0.0008402810727414842,-0.0020838864177058795
-0.001469755714369077,-0.0008014509862558467,0.001095295424642593,-0.0001446074968418099,-0.0002204121994324636,-0.0002610950285043487,0.001643903563323168,0.0036106458007114143,0.003762584068804212,0.0017399514461711595,0.00022594770587318382,0.003028416853961804,4.691297142850719e-05,-0.00027226147779768617,0.0014379406738791415,0.0016810190125643282,9.679001692793708e-05,-0.001796414789543401,0.00317791064269177
-0.00038266208291918224,0.0003790805813152652,-0.00017263483696287443,0.004110210861144467,0.00024156465388638045,0.001157774513770014,-0.007402906444890172,-0.0036211336718378192,-0.0018655885077786243,-0.0015258704743859963,-0.0026863859352936697,0.0010543731304766507,-0.0001076308260663753,-0.0018242098524821832,-0.0008484867565118244,0.0002739249479278966,0.002435993480279939,-0.0011113061695461437,0.001765869210752106
0.0028823137259938792,-0.0005327072673287531,0.00023602431738945637,0.0017817582932527411,-0.0016513184671255144,-0.0020422757392661093,-0.00300050836776943,0.002581010078826727,0.0010860890179823532,8.200993145374074e-05,-0.0004243143053159543,0.002086457340208112,-0.0026588371980499565,-0.0016348537570172969,-0.0021216388594787064,0.001098743015476319,0.0007590232285181092,0.000670193712826055,0.0001207915147353647
0.0006292937685835786,-0.00014306679627603173,-0.0022010625728999425,-0.001653302491553675,-0.0021333420518524658,0.003187645612785584,0.0028149079678721394,-0.0009030852045495657,0.0004476505607721864,-0.0014519709451192245,0.0011309114071249308,-0.0022800525682510095,0.002741081679443234,0.0001977658902765586,-2.3539342708903312e-05,-0.0007275587288930199,-0.0012081376316199766,-0.001776216289383899,-0.0029140101313400208
0.00038382309794557877,-0.0013139004184279492,0.003521600646124441,0.003271786051713172,-0.001751922997913933,-0.0005845042358397511,-0.001837087913468493,0.00192037550427619,0.0006421287965284884,-0.0002203891287821969,0.0004676569172125409,-0.0019704554642490926,-0.0010552744412196133,-0.003101247222101206,4.934138439687426e-05,-0.001112763746745521,0.0010736281340029954,-0.002379102386362271,-0.0010282502062455583
0.0007296126168021012,-0.0009620229232486791,-0.0032576435174510414,-0.0017557225516660014,-0.0006286516157947849,-0.0033413703316618405,0.0024514600089096308,-0.0004154501881237867,-8.346105358828716e-05,-0.0015757727054346315,-0.0028491849811834885,0.0021530687656453468,-0.0027008165854684575,-0.0005691837104496563,0.002130777466218033,0.0009284675755125731,-0.0005985631658347787,-0.0006887804302253886,-0.0012166426188569206
0.0009387863362074547,0.0005029092884294465,-0.003288691338369688,0.002947682165278879,-0.0018337739019792646,-0.0008473043163734267,-0.0011794685512813356,0.002673121580697093,0.0007194766566464764,-0.0010360063532798228,0.0013848145022478749,-0.0015836449715313622,0.0063129006910815,0.0002502392258142715,0.00015796110495346955,-0.0054421135124988595,-0.0013027964609859627,0.002648755876192199,-0.00047134709189633185
-0.0005864635678403568,-0.0016810325454771962,-0.002782425331746323,0.004391011246380256,0.0032436621265712444,0.00018663891077922806,-0.0009335263671240245,0.0008623348209848629,-0.003743178065647353,0.001499484322508495,0.0018885288455883311,-0.001785173184055922,0.00661247291863543,-0.0023547694775230953,-2.9807110128433324e-05,-0.00032673729051356694,-0.0011849810471547062,-0.0011908093677959238,0.0017451484571849622
0.0008251176775449351,-0.004050865572190427,-0.0018359535763932935,-0.0001518973792558689,0.0005357032796509065,-0.0017227464096231109,-0.0012374019902500486,0.004756397371991347,-0.008216731164458887,-0.0006232254530928865,0.0032303507364692475,0.00034108395949367294,-0.0017089278550357194,-0.001137688034556803,-0.00044925739796587114,0.0013159627582108307,-0.0033749830340040173,0.00021330977326486386,-0.0005441055282622199
0.001927614456870514,-0.0016911870284196603,-1.7644562181956365e-05,-0.004152746671183231,0.0018324357994254788,0.0010862617293633896,0.002777005805915394,-0.001427472070839258,0.0010851166444938044,3.306485234511334e-05,-0.001587869216926799,-0.003194094421851519,-0.0024545853625959698,-0.001393291686408384,0.0010689651197961971,0.0010886836171225714,-0.0008950979044212524,-3.316094524587125e-05,0.0006677332123070166
0.0009750435662403099,-0.0022178541654542636,-0.003158701695063603,-0.002089793594590043,-0.0021692535980717713,0.0027880505058192175,-0.00411113864466099,-0.004063580473363377,0.0017153309540086218,0.0018765706464474521,0.0004957821518636783,-0.0015175221149486282,-0.0009251814631796016,-0.0011131102941448147,-0.0016804980802183696,0.0003319013212231645,-0.002681039263294989,0.0007571193190289778,0.0017030930212568033
-0.0021665090955367045,0.00021562179099333142,-0.0003251643686459722,-0.002453323777029395,-0.000977349963957494,-0.0032105667928589337,-0.0011540473224135588,-0.0009436450232376507,0.0014857844375180554,0.0021359329769082944,0.0028175336935567555,0.0011847969800155348,-0.00010940766582756042,-1.3553630830023068e-05,-0.00046279777286994917,0.002973734715307533,-0.0030351959774034226,0.0005488146920088807,-0.0005956884911322205
0.0007944575332697745,-0.0007383213628857748,0.0013033521520065521,0.0005551741979255186,0.0009393544470379007,-3.0040572961989838e-05,-0.0025489286844239036,0.0025887640651443477,0.00011877952686282867,7.795314767320245e-05,0.0005872183597100301,-0.0027375473502919937,-0.0007726513607156014,0.0013851495695654278,0.0019938230137263153,-0.004885800736527734,0.001503811140452289,0.0007286910492858726,-0.00029063514340527076
0.00039054457886887584,8.677852554107354e-05,-0.0023661931264745474,0.0010558904794876836,-0.002256104379870692,-0.0014852676031718807,-0.0005714144750959913,-0.0012477439671269325,0.00023526478493752676,0.0005012074915293619,-0.00020114892692292067,-0.0012965914477716446,0.00130757906593487,0.0005501265665741583,0.0013518979358985732,0.0012335253257378684,-0.001146159452018418,0.0011784479671149944,0.002760836519916998
-0.0025474737459964775,0.00019848682497633667,0.0030477267126688967,0.0011377034608626387,-0.0010773980408362385,-0.0029087266067007195,-0.0008722269309040264,0.0004946208908638518,-0.00048019602239758244,-0.0008328688199901873,-0.002033611785931885,0.002966748917339094,0.0017905110370234443,-0.0014898960664425477,-0.0004589552549962006,-0.0004787320308452165,0.000316511854159939,-0.002394360700288511,0.0020784374721852504
0.004448042126179332,0.00027411928428915035,-0.0028455049899022847,-0.004521581066428833,0.00315372179502152,-0.0019014707964564942,0.0010989188220721896,-0.0019397031685614097,0.0004053272961696753,-0.0007339985638847785,-0.0019754996877377018,-0.0014922327213003066,0.0017557828647016336,-0.001280953543731793,-0.001389227873625811,0.0001421772364401306,-0.00026598770374955096,0.00012018410638206895,0.0009681226650599457
-0.0011905717167956889,0.0005152258749668103,0.0011070239540284695,0.003378051688182993,0.0033581398960327606,0.0014815783072346929,0.00020016480142190588,0.0018159123419213437,-0.0010376174695531364,0.00015894283614152852,0.0018288097573689957,-0.0006097507166324781,0.002627938454553188,0.0012292758138208227,-0.0020016737391743266,-0.00218730205518112,0.00174595099917499,-8.628342829872129e-06,0.002159147192547869
-0.0016018446988955426,-0.0002778056873350764,0.0005145251936133317,-0.0019680142320172927,-0.0014359385806464076,0.0010794173458993429,0.0005705781624656739,-0.006463673657045908,-0.0007074868149114791,-0.00018059150144331883,0.002240463880603368,-0.0017947135860233946,0.0010278031964816735,0.0010561438032230801,-0.003738784762979956,-0.003472700237593624,0.001479484648596698,0.004130093190307822,0.001442450990156738
0.0019623085447135645,0.0016127156910736302,0.00018050700478058326,-0.0005835037786903636,-0.0006362311822207631,2.359940735753622e-05,-0.0008108602674899068,0.002013696076389923,0.0030900483236968074,0.0005899748792417479,-0.0005112035491411381,-0.001303151124284362,-0.0009290432884025459,-0.0006156485234908073,0.0009877166859287641,-0.0005589303943337898,-0.00027538148195214383,0.0013500470686902107,0.0013270325187451533
0.0003238461506481218,0.0016442690556532893,-0.002253132292075765,0.0004089867838248091,0.003094996558430609,-0.0004556664975830491,-0.0008390813983164109,0.001499498432497013,0.0006304718346690077,-0.0038428833786022416,-0.0022071864161966465,-0.0023630909178875745,-0.0007425800760197932,4.6596491322794894e-05,-0.000558317991785327,0.00032058578206949426,0.0019847103671939313,0.0007879918272032929,-0.0014214886697499656
0.0009757338913373547,-0.0018030182568311009,-0.002939032338393254,0.0004282984326260766,0.00112195345784797,0.0004438421393284314,0.0022397611031476404,-0.001026010089405394,-0.0018816937807091727,0.002113553093068032,-0.0018056008277187753,-0.0030241346810150945,0.0004251296888487723,8.91812827697777e-05,0.003725007841501691,0.0005612868246357975,-0.0008113555082194304,0.0020816802213855477,-0.0016887898119798037
0.0010076920051840482,-0.0036626836770203017,-0.001995995270337699,-0.002469764845534593,0.0016498405434306352,-0.0008282808537852954,-0.0005981036618939688,-0.00022925773199672839,-0.00234250326028243,0.0021198557830603005,0.0015647075140921114,0.003555824014041705,0.0006802868053287679,-0.0015266383981739399,-0.0013187997863733582,-0.0005985175088173881,0.00023339473336850768,0.0010882178380128525,-0.0009395574337013866
-0.003640043309820875,-0.0013411789846907527,0.005285233981394351,0.003647751616072248,-0.0024427074477054453,-0.0014936236200775346,7.35605732396606e-05,-0.0014477985538005021,0.0008243269388455634,0.002230901543728524,0.0007283025655307392,-0.001806281736527841,-0.004934982485618708,-0.0017624787465068401,0.0027550944444084255,-0.0006377939864614694,0.0007151648345397084,-0.004659122380747627,0.004536725387242186
0.0027144568809008424,-0.0008967557562967654,0.0020012335702590547,-0.0031848327074925175,-0.00234816490425162,-0.0011024257128677579,-0.0008551225818720363,-0.002071982840034208,0.0008586589037619069,0.0001820027605954808,-0.00018983906297602202,-0.00031434783192386186,-0.0007145570961269919,0.0012636545735251734,0.001029472620458138,0.0028753485873868486,-0.0007254306787280756,0.0011167400799617904,-2.5563768856106554e-05
0.000660160053592715,-0.0024512239097590994,-0.0005239294197024764,-0.002028577996998712,0.0022456207056622992,0.002048083088845405,-0.0009123871288618786,0.0011541422706279499,0.0012698795563019518,0.0018366611081202622,0.0020742913798750297,0.002903122346792911,0.0017807137437804415,-5.700247924590118e-05,-0.002865713841070036,-0.00033674319280267847,0.0031450211117356824,-0.000865158765078382,0.0003973554927271477
-0.0027762969192421747,-0.0019337938655017623,-0.0018769985720224697,-0.0006516503767012004,0.0020673833972992394,0.002023410224590093,0.0030842716744868734,0.003363803088173833,0.0018825962825258118,-0.004004434687391744,-0.0013030078610112266,0.002100058531285231,-0.001022449086653635,-0.0001231469149979187,-0.0009830381539866562,-0.00045394365464704415,-0.0005481807532613016,0.0016803832220820742,0.000401942828236582
0.00381789651341367,-0.001027048327103122,0.00047824639834762104,0.0023747510954459546,-3.556803150577129e-05,0.003466368062189698,0.000580052864663593,0.0010064004933072438,-0.00038926702002054815,0.0022851308017419105,-0.0004302783714594566,0.0014772813293725407,-0.001021602284070582,0.0026586987660761454,-0.0019497924791686742,-0.0014575365376819482,0.0011416205166458982,-0.001985509181060645,-0.0032493115736125446
-0.0005781548773800691,0.001634552234923549,-0.001493786636596211,0.0016271358706643777,0.0026854158395737916,-0.0015765229508926794,-0.0011199230859746155,-0.0006454231627343156,0.0037981568813681326,-0.0017018775772301715,0.0011278635470673354,-0.0010610668611062929,-0.0019721934273287697,-0.0009501097407225121,0.002322105917326065,0.002363160546253753,0.0002435628848394456,-0.0014189479396612675,0.0008670410471753241
-0.0010067178440163608,0.0007180016549465963,-0.0004961313909458224,0.0034700814276652945,0.0012060674023495342,-0.0005353515931373884,0.0005732778884815149,-0.002296236053680651,-0.002260946293239962,0.0024433967330972487,-0.001019290013261702,0.0009161167903324816,0.0019112409779038538,-0.0017725526932771433,0.0008181402168103289,-0.0010627834963896597,-7.448257930068306e-05,-0.0012713065585539945,-0.0034721812210380845
-0.00014946134712884518,-0.0008372023778519018,0.0051059126234203325,-0.00249165349801158,-0.002682025840065544,-0.0028224239560075168,0.0007778492732810195,0.004423737144176871,-0.0029624639199466664,0.0006209278311034693,0.0011417381613818452,0.0005282720175483562,-0.0027146298285088202,0.001176584986890178,0.0045697810550702125,-0.004040520088547013,0.0021714759335139063,-0.0007034108901109592,0.0038400236881244447
0.00019082420092793014,0.0007987322807906028,-0.0018937756971759891,-0.0021382624520522473,0.002001783925045473,0.0015166983856604276,-0.001780404248581313,0.001118082605634746,-0.00020021166554812995,-0.00039202595561626304,-0.0010330148240883417,0.001240669839398718,0.0036326617765434577,0.0022762201847745145,0.0013770125200555769,0.00033774102963237925,0.0009426542633244281,0.0005319754998494849,0.0004801170573970156
0.005853416245308239,0.0002818121624361848,0.0019177669421150078,-0.0005019128381854568,0.0021371095329771436,0.0012303875612539098,-0.0005543481062552371,-0.0003676337105800948,-0.0004473445582883005,-0.0009126023775196826,0.0002726830376956912,0.0002140063174794033,-0.0023559059905496776,-0.001828208767686211,0.002361628695170395,-0.0019087849319554151,0.0013483561704381954,-0.0005190921760094295,0.004216898644122247
