0.0009751940882399073,-0.0010055732850502812,0.0001740345847728923,0.0006168275039149569,-0.0027270506379113864,-0.001249239449723818,0.0019280161471577056,-0.0016737140490744114,-0.0013788510981786798,-0.0012318769575404764,-0.0021909148582289315,-0.00015559303869709524,-0.0004064116156424159,-0.0008148030757616489,0.0002851252490655375,-0.0015287995388740603,-0.0021826374696132067,0.0007071177368003861,-0.0019605160624121634
0.0025129370913227625,1.339125412028341e-05,0.0025596832497709284,-0.000574270533567011,0.0020893424364850643,-0.002169299903331879,-0.00014992304065943168,-0.0006214494733126982,-0.0015057774237077386,0.0028921266560628114,-0.00019877098377268064,0.0023333017205794497,0.0002729986881721481,0.0001831297804203245,-0.001712481914353731,0.007176732780034839,-0.0018167225906596052,0.001017156383100022,-0.0025550909463443942
-0.0013845277877860209,0.0018431623063443008,0.001330064792513604,-0.00022377393222769144,-0.0031257569430855085,-0.0011778115900533737,8.279960626902674e-05,0.001119790187904943,-0.0024622654841953426,-0.000995435824568291,0.00027128844627583514,0.002254194194257336,0.0007816078410150503,-0.002609503955322035,0.002260227817376315,-0.001699449054827879,-0.0022232434696448137,0.0017205487350719863,-0.00046898039419934165
-0.00045955961449186886,6.865391600790629e-06,-0.0021312014860403014,0.002307275474423101,0.0014491621937915708,-0.002127720216846321,-0.0019107958348815511,0.0031885231074655503,0.0005962667238438198,-0.001525938080694905,0.0009182797966097036,-0.0010811848057459533,-4.4324359450941334e-05,0.0002340943185584507,0.00013197177819702498,-0.0023061273179626595,0.0014245600327101532,0.00176916986566757,-0.005869512126888601
-0.0016174854226765536,-0.00393156091338447,-0.002408511803689866,-0.0005221909484677391,0.0013614885025398783,-0.0028158393777103956,0.0035915911547468983,-0.00013989498268992702,0.003859351691888447,0.0019135061964544813,0.002135212279952661,0.001638285542300446,0.0026502229960490794,0.0012015338533563292,-0.0012261516886094093,0.0017946962027589092,0.0005503602229616348,-0.0028094499438146526,-0.004100250798396175
-0.003317126121520936,0.0007879791678406452,0.0007506192972177552,-0.0019646790499004935,0.0017870748432537525,-0.0032292618936139023,-0.0023077495008649615,-0.0019238320770241814,0.001832761569430708,5.298830986723405e-05,-0.002324739657420346,0.0016060730003699356,0.00031145224441705125,-0.000879400203471115,-0.0007719189023863983,-0.001969937058813993,-0.001098604425220437,0.00019000549236387318,0.0007249293768563802
-0.0014224012625721218,-0.003922088816051,0.001909471111707245,0.0019827988617463,0.000557669757249662,-0.005280934365930549,-0.0003734874930121673,0.0025257362443290043,-0.0012090500993113653,-0.0007280197343702533,-0.0030568548411285153,0.0017738396211207808,-0.001291762571921413,0.0021898372657002097,0.0031509527363596536,0.0006597056743043865,0.0004125917936237711,0.003222936279566178,0.0014050726370635465
0.0009416929170870326,0.002668902141556905,0.001998474430023565,0.001300389056594809,-0.0032910980150583934,0.0008438471082209554,-0.0005495291033029068,0.0018209268920525033,0.0012002677158515277,-0.003415153332915674,-0.00048278763523296105,0.00015807635177864432,-0.0013163744608410992,-0.00021475401586540867,0.0010067183575616693,0.0013620554494383746,0.0004908842487782197,-0.0010228526358983894,0.0010529314161602478
0.002917633856455651,0.0008580869197365199,0.0025820633198809615,0.0006438151099659112,-0.0009699222697561301,0.00239306538691698,-0.0021534551579184455,0.0035293346503401457,0.0016903492684686504,-0.0009499733160065703,0.0015353817039670578,0.0003855301151352647,0.0009135464354311155,-0.0013049132389983868,-0.0007350987325239251,-0.0008954536715411942,-0.002353535882731023,0.0012857929052783397,0.00232497484661179
-0.002882060406259845,0.00430683249083021,-0.0012033851102660705,-0.0008005661754411798,0.000577535665843779,-0.0027909184867020366,0.0001782996702635539,0.0028412962182194153,0.0013279158783944989,0.0001029948183445521,0.002541646432111363,-0.002890982391499039,0.0023618645344101043,-0.0044816946120014665,0.002789969490548148,0.0010643718158771039,-0.0038648942112218636,0.000594928600854314,-0.004578029755244229
-0.002517825246897382,0.003263147148494243,0.00012500530830530566,-0.0036189645224582005,0.0008983499194880332,0.0056420542796752245,0.0013262280537126162,0.0024808787820989006,0.002211438657822181,-2.5969521610211606e-07,-0.0008930741890831873,-0.0009326912031060076,3.706866543216547e-05,-0.0001672001704363798,-0.002422098701980551,-0.0010635413661202046,0.0016717887775494842,-0.0019228508541304175,-0.0006193699105930755
0.0021289748492271956,0.0001418488521921118,0.0011536479980987849,0.0017416780321736576,0.00013541510598775208,0.0010042418517378707,-0.004797900011573193,-0.0024523319655034323,-0.0003285779361635485,0.0008704904746570699,-0.002283450919765103,0.000308872616376547,0.0005654160010393441,-0.0019517430458217168,0.0010194709284564024,0.00033892663842177267,0.0007754220458709522,-0.0014430403741881796,-0.0009886713149562213
0.0043254511673471215,8.404227689455836e-06,-0.0014542894884891624,-0.0003232610415972711,0.0007922033681486904,0.00028619154032719703,-0.0024106426952682984,-0.0005988243061901893,-0.00724378328193239,0.002569279213597316,-0.002997981812820081,-0.0003035784000466953,-0.0007389746347421739,-0.005376476943859492,-0.0007228611958093635,0.001543739017140329,-0.0008496359656018596,0.002421297843603358,-0.0008175362076999843
-0.002201636952872161,-0.0037495806722238536,-0.0011326777813174776,-0.0024599289237268868,0.00036225971886930873,-0.0022466372556146767,0.0024584574921626273,0.0013310382896106797,0.002713532510315235,-0.0004386171819554036,-0.0022704187434677407,-0.00022872991517400916,0.000819575395940143,0.0008836041173072882,-0.001008875871250983,0.0002843315333562369,0.0012705384072814756,0.0020400830187883865,0.003866508035536487
-0.00023969398826071165,-0.0019371216431737393,0.00040454112985877425,0.0017905500204744417,0.002216938145108107,0.0022909747703794563,-0.0007404267115835093,-0.0006991847055838396,-0.00013848412217839742,0.0006823057807786565,-0.001495288386973313,0.005144497097835305,0.0020885164679058073,0.002837854631739687,-8.328561798438471e-05,0.005223150407764553,0.003991778710193152,-0.0027251491980599583,0.0011117507309986374
-0.0017730650433577266,-0.000426482891591038,0.0035860293080617078,0.00030092609205321225,0.0036129369663603747,0.002130903983476455,0.00023563399553505293,0.0003593809313295167,-0.0018788991559919505,-0.00012719329725025178,-0.0020398614129015307,-0.001287651381532734,-0.0008281146946589001,-0.0025721342348924542,0.0022523644077062583,0.002463740044958932,0.0008385083507501483,-3.545770853239247e-05,0.000321570329659068
-0.00019081825403273936,-0.003494925319388225,-0.0033735813554488323,0.00024224938106598212,0.0028588852970194163,0.0021436653965666804,0.0017795436625466566,0.0026566995808003663,-0.0011077157724836268,-0.0036403716222680243,-0.0013813152814143856,-0.0041035808150944,0.0011960520043248748,0.0010576103523367716,1.8272517268123815e-05,0.003455278885632895,0.0006881285277822989,0.000592126841792742,0.0021030132241346903
-0.002185466876881918,0.00015893935905181747,-0.0008284909558056086,0.00035585913414171296,0.004121059219860188,-0.0003139531006668739,-0.0005790245637593338,0.000522845388101193,3.894768119062276e-05,-0.0003381084541327621,0.0005614606091566077,-4.6869920108582514e-05,5.658353602431987e-05,0.00023234232063765398,-0.0006853776801616029,-0.0014382981676469937,0.0008266318449916159,0.000563081543197081,0.000493903339047986
6.399873270608982e-05,-0.0022089811942849454,-0.00032409368962733247,-0.0009891516166542133,0.0018560911037604553,-0.0013177195820056257,-0.002268608337466582,-0.0009715707275436683,0.0020448725358490493,0.0007671597691394786,0.0018594756492787909,-0.0031502477392695615,0.0016794678659829618,-0.0029067700095252416,9.312153869741266e-05,0.00039899967723737266,0.00037555150281687365,0.0008644465488245995,0.0033856920464193107
0.00021060957959311846,-0.0005303944018137821,0.001021236490427233,-0.00018384583910259475,-0.001768531537679063,0.0010208441647334403,0.0032377392187641217,0.002215252446652052,-0.0013785313170666855,-0.002476845630709981,0.0005675273874828756,0.004189032170076916,0.0020510397130109326,-0.0010106071243546847,-0.001305885155500853,-0.001242438472533501,-4.643868672983341e-05,0.002996852340180695,-0.0014241382146607238
0.0012949716747306722,-0.001867117350404131,-0.0014598764375011663,0.001961373632368956,0.0001713134820637557,-0.000744509595688174,-0.002726651985664252,0.0005210548845985105,-0.0017824138313400377,-0.0037821823010029676,-1.4744211562267241e-06,0.0015409133136539618,0.00330008385994447,-0.00098596164201687,-0.0004542144649800231,0.0016705887650586375,-0.0020497752282425687,-0.00021218003455857095,-0.001912303338737386
0.0017073247624375682,-0.0038160443706481708,0.0017631595257078575,0.0017556727924266631,-0.0021495972309869982,0.0005524391874155787,0.00151706594768688,0.002183504756522761,0.0007593709755115839,0.0022021106871580255,0.0006313468495840645,0.0017963883591136328,0.0032664686976144473,0.0010765652874097198,0.0031634251360487097,-0.005425978042663383,-0.0022439063907918177,0.0026520509409560474,-2.5232523190478088e-05
0.0004786119124097603,0.0006227877316535886,0.0014818498475439187,-0.0004759766122545076,0.002243566665679466,0.0009308103194368811,-0.00287730180322176,-0.0007179563713178683,0.0014744579808978553,0.0003286059677754929,-0.0008074162698762492,-0.00031804523827810307,0.0016671887501932875,0.0005442011182293911,-0.0015966373282935767,-0.00024249101249725646,0.0012248738758066338,-0.0002611599098946045,0.0008251040296574971
0.00035416010762549186,-0.002162542694785976,-0.002284597530545056,0.0020114629139217906,0.0012729304429560057,-0.0016600408761459076,0.0004423287155635721,-0.0011569764337635193,-0.001017346029636545,9.282768255385413e-05,0.00032084431191100774,-0.0003416456155032798,-0.0001858763890768914,0.0005321738012645106,-0.0008687171959473172,-0.0006360489160560274,-0.0021632085576200753,0.0018316067259090286,-0.003060384212309118
0.000568693062943678,-0.0020590106790201825,-0.002259990207858742,0.0019373816721254182,0.0040069764600052255,-0.0021893975117606686,-0.00026865421338657523,0.0007750766067555671,0.0005000823962149381,0.0015296666592332594,-0.0016279032154279814,0.002882189483224761,-0.0031520680195644612,0.00030867240411367613,-0.002717677072878884,-0.00046457168635930126,0.0008311899713914453,0.0004232230686905054,-0.0003529688416217946
0.0002938510337814256,-0.002244663353792831,-0.0006195412220858179,0.00016797859318549004,-0.0010186111445667865,-9.148278195205744e-05,0.0004702707031914077,0.0014921759907383682,0.003671835281565809,0.001401512410081076,-0.0016903007981588327,0.0027641280559065097,-0.000881207091293189,0.0029401017832535684,0.003146969660877691,-6.272074247262988e-05,-0.001787523487480813,0.0012253063452062425,0.0012577773754585283
-0.003271341527093892,-0.0008175593863849362,-0.0021378611001750592,0.00012427140602808213,-0.0012227109351203673,-0.00022457993028194258,-0.0016355948094044712,0.0011717671553258932,0.00031970305686939066,-9.53583512299951e-06,-0.001193503872666291,0.0026297967674922397,-0.0024185170674191083,-0.0009302358951510938,0.0044601070816889885,-0.002230605233842597,-0.0007502485720041323,-0.00031889597344686937,0.0015163893070511017
0.0015731230386810049,0.00038656795241692873,-0.0028484437356158425,-0.0033668753359564537,-0.0008360382111921948,-0.0037263615141650878,0.0007889622190308382,0.0003879346673501007,0.0014473658859966787,-0.00022251393425245475,-0.0008021701041579787,-0.0014095362858734112,0.0017245791011407142,0.0008748229882825085,-0.003545516945157232,-0.0005636879461108149,0.004678821550840306,0.000564874337775083,-0.0036212886850744094
0.002902803637837801,0.00015687012482762462,0.0019388121940799598,-0.0009022429433875483,0.00190697464428226,-0.0024137413377093133,-0.0018336267149332262,-0.0011081679061497826,0.0023954243317982743,-0.003011038469626443,0.002918088480187198,-0.0005542391235593333,0.003298572474053319,0.0023362783192797452,0.001769272146862279,-0.0022112644228241773,0.00047082670088200384,0.0005041881362814249,0.00037744716385236917
-0.000976383398699634,0.0018724013907071293,0.00046640064319540363,-0.0010667790077011912,0.00048013022557382584,0.0037571880722271403,0.0036441888127955063,-0.002211884376332665,-0.000417697876204902,-0.0007996111105011593,-0.0018383578339414442,-0.002713463042500606,4.798628429291037e-05,-0.000944905110033008,0.0011974835171244694,0.0027704556942045426,0.0028838175169074473,0.0014108590391653107,-0.002729457654848695
7.448485864121671e-05,0.0003896147567483879,-0.0006309288276398461,0.002403882360555342,0.0025685594915418855,0.0014465364895817525,0.0011648275164804424,-0.0037532273297797704,0.0023529882708891565,-0.001835016984675034,-0.0015821752118494858,-0.0006114644304527118,0.0006742884354189739,-0.0022630874359646355,-0.0015629300048995414,-0.0018462184234235015,-0.0017472713798333157,-0.004682624913533517,-0.0029039042390785106
-0.0008185068976544247,-0.0006751619205093635,0.0004247933278751532,0.0005012123301261102,0.0001520393832641727,-0.004064813850644113,-0.0016057315157019787,-0.0005085667019447446,0.0013250991653444247,-0.0009790767860758367,0.0018163789046964222,0.0008524484643889407,7.765091245219106e-05,0.0014195827776616163,-0.0028512116956133007,0.0016618303313048193,0.002366008060895051,-0.0003235601652081164,-0.0014027446680550941
-0.0026817379598304512,-0.001087366256066453,-0.0012515923173795915,0.0020249733249919745,0.001908607911148309,0.0009038953849842661,0.003933665311045233,0.0035161560804903157,0.0056401455808053795,0.00015985084542778218,-0.003082331482663233,0.0003038732667991769,-0.0029376071904480047,0.0016839714622097688,0.0016582367453724476,-0.0013330072233758903,0.000847288030995452,-0.0026577347332080556,0.001637017794610111
0.0036466260947349014,-6.994753989798568e-05,-0.0035143410788004213,0.0011498040768445786,0.0015135411453948218,0.0008509842700915183,-0.001364236931996609,-0.0014885235120229252,-0.002745416535452613,-0.0007027725723668525,-0.002619204420182879,-0.0009997469508873464,0.003923634810232473,0.00015853557274775752,8.857672730310942e-05,0.0006733100900485834,-0.0003445728309019531,0.000538705702161934,0.00429837616210722
0.0033087280027048085,-0.0018077985184152736,0.001445713497094356,-9.796925421066898e-05,-0.0009085933079655524,-0.0015096700259657472,-0.004363790495665116,-0.00038553158160093234,0.001588539352224273,0.0005030176377868295,0.0004225884543045417,0.0018894021171625176,-0.0007364306696419006,-0.0009116601683058369,0.000509788036601564,0.0025065134870227057,0.0009879846625293477,-0.0013061757227448708,0.0017574990170881972
0.0008032752767110926,-0.0014179103019963189,-0.002519136285457303,-0.002352612239571604,-0.001802385342948077,0.003962863675513396,0.0019185264490911241,-0.005369709925151326,0.00122616399948144,0.001542661981074937,0.003066642321127666,-0.0029696563364995502,-0.0017475817874942263,0.0017725111266827071,0.0006593608584075245,0.0002737982553989524,-0.0004354064422582372,-0.0003411219289208486,0.0010545508800684745
0.00041669090907494943,-0.0021380414667738646,0.0034336472478402073,0.0004994076192870427,0.0025392288955348825,0.0005942796611222342,-0.0014407561007580764,-0.0019938740350355253,0.0013499070778779855,-0.0023720779857724526,-0.0031652204527760773,-0.003204534528105002,-0.0003991916983523515,0.00035870042399109396,-8.393428170116957e-05,-0.0036263030071468773,0.003481988571453376,-0.0018147422653772317,-0.0017938081212838526
-0.00016976954340585133,0.00286858552216323,0.0032749636870693416,-0.000496532665547087,0.0001577944144300969,-3.103378562400136e-05,0.004153702717078452,-0.0003164111641202632,-0.00089135059118707,-0.0011803430033144337,0.0031822072899179367,0.0003751909911491894,-0.001433839115996315,0.0010599736856529028,0.0014908395160442612,-0.003578875404847967,0.0007431667520236605,-0.0013192951032788545,0.001153091941772958
0.0020568769848991197,0.0011534509886870783,0.0006493368525931253,0.001933658018682143,-0.0012193264950501113,0.0014823268244627675,-0.002285446947959484,0.0006352568992438478,0.002086719678721812,0.0005185451136160003,0.0021188882208729018,0.0027332595294956388,0.0017855057137587996,0.0021512775805629563,0.005045563278737818,-0.006018266441796212,-0.001516292009886594,-0.0002683072928602431,-0.0011512299219482865
-0.004272622358974708,0.0009875397777585465,-0.001189210490649171,-0.005327502983885319,0.0005366886419292627,-0.0021271154436344106,-0.0007244120137690936,-0.0011675208184722318,0.00040850175826103054,-3.628842256881131e-05,0.006181791997363563,0.002587501990346605,0.0009094236391270636,-0.0033676640839037956,-0.0001576339913217389,-0.0022247506434098334,0.0008746015665988893,-0.0009630782773202717,0.0005596144627420841
-0.0006098749803070634,-0.002509887912224517,0.00010639052491384304,-0.0010373921394552998,-0.000495967100990504,-4.7987810589145e-05,0.0022047400847116337,0.0005689862108885333,-0.0007423797439175632,0.0008446802281993584,0.0003937713397328967,-0.002682788703761893,-0.0007628073315144555,-0.0031706862896932826,-0.0010197801370641385,-0.002388578134412432,-0.00011891454305104504,-0.0007009269881258729,-0.0030659096694302607
0.0011668054410538223,0.0007150221128287245,0.0011121453618970361,0.0018977095178321786,0.0026844758300042554,0.0009967634607949843,-3.6250003249887325e-05,0.0032521492444942627,0.003443509907532017,0.0001396247203650885,0.005389362428685763,0.0008992519919587868,-0.00019799778461641274,-0.0014882862442486245,-0.0012532684411266997,0.0010303325515345723,-0.0024065346217494593,0.0006445815170654448,-0.001398100464105429
0.002823265603104107,-0.003957855132844006,-0.003819771731440901,-0.0002952743784650661,-0.0011475255570863566,0.0026386818180395223,0.0012754392775238747,0.0027408977107958653,-0.0004345759891220933,-0.0010639878025425487,0.000737247358116871,-0.00032010831575359357,0.0011362398272872856,-0.001726131076317184,-0.002924799680592124,0.0009301414132684168,-0.00010615740628293669,0.0014896986755729702,0.0012886710528517249
-0.002052944829084272,0.0009687526631114943,-0.0033530957321132337,0.0002573053013775595,-0.001621763039645842,6.311725544789102e-05,-0.0031136276761072348,0.0035080600233086995,0.0003784527986904578,-0.0025136361455261992,0.0017201030665698965,-0.0010477850934184644,0.0019073397360661033,-0.0012882157253113291,0.0005203689240742133,0.0009615471600477954,-0.0011864925430635966,-0.0022844995942317473,0.0030781672724993366
0.0014214229564192653,0.00029590002266711816,-0.0019673404382062653,-0.000792636400960518,0.002866804686921006,0.00239954968322654,0.0028700732584849287,0.00042041334844320155,-0.0021762332280508495,-0.0010847094809902182,0.0006219543584107109,-0.0013124368613273217,-0.00439899634606234,0.0014205499501233872,0.0004925459118522393,0.0012443133529562494,0.000785600452533042,-0.006136677513043884,-0.0017132650877494974
0.0009583828026867622,0.00010420182041544482,0.0002602902409854449,0.0002889251908722149,-0.002193650822699411,0.0024692921099508727,-0.0025834780490004445,0.0007908141579127447,-0.0024866842469873627,-0.0005648815120470452,0.001998273328517596,0.00039040683617211916,0.002745585626971856,0.0010680214512179646,-0.0004778749658127231,0.0007077100121068654,-0.0006919700219165242,0.0010470466624615921,-0.00042995638322807
-0.0028871490415292816,-0.00020499659540635664,0.000660361076094715,-0.0008051353833060957,-0.001868990533609209,0.0015537884990859797,-0.00047780994054996744,-0.001722161948964783,-0.000453146337913231,0.0012503026627986775,-0.0004633791700072307,0.00025609008778772186,-0.0036564123564547034,0.0005802423505310198,-0.0036262506975004286,-0.0007628369305422089,0.004130590679288426,-0.0010151436983316861,-0.0020833389504171943
-0.003834486819990462,-0.001466592213452309,-0.0019100211510547306,0.004566087146302459,-0.0008684765437535403,0.003363303981729777,-0.0004799217777264466,-0.002461450377623167,-0.0014329763957015185,-0.00032976854409114733,0.0020373722953993968,-0.0012676468657190547,-0.00214112126771678,-0.0045636180486570525,0.0011805476817675531,-0.0014542008792438233,-0.0025015114906298346,-0.00025403377575739503,-0.0018896088284093323
0.0010988170773143862,-0.002286359867180667,0.00023535931908654536,-0.0022502766890922865,-0.0011006025689985865,-0.0017373428320985968,0.0004847503407104841,0.0018221446095936364,0.0010380472192253166,-7.16820197189739e-05,-0.0022497156362388743,0.0018771213351583805,-0.0049929343970226674,0.0019114689571091855,-0.0007018212014019163,-0.0017078331330602355,-0.0021776936961855117,-0.0008078689387311414,-0.0014899627428114268
-6.824169164346379e-05,-0.000753450221094599,-0.0013544481382581268,0.0018194181034942955,0.0011404567341976306,0.003518500211355608,-0.002690005016368413,0.0011584516724858938,-0.003918095104119347,0.0012218011210906072,-0.002819644133376419,0.0034932354877548694,0.0024891984240542103,-0.003198871600307746,0.0005505180546873765,0.0015850504640905303,-0.0031063849664761363,-0.0005153067823445575,-0.003151729298945056
0.0030337255701094255,0.0009205317079885372,0.0010292351516285865,-0.0002529252401972132,0.00024270706546037572,-0.00032683695092421854,-0.0024218661473436815,-0.001197278511155941,0.0041880957870386575,0.003249880252512476,-0.003136228274604514,0.002456603488625163,-0.0009672094658854236,0.0014599544224625503,0.0013579739410788808,0.0010392277220322055,0.00041550138887230163,0.0004360965499271242,-0.005459590644163552
0.0037742277640606067,0.0015311196597984252,-0.0013992366961198051,0.0018051918424917257,0.002887008170473301,-0.0002779643742279568,-0.0006250484734460082,-0.0011851849797169579,-0.0007211585779181794,-0.0014962939631893604,0.0015178551739047676,0.0007087098267981461,0.0010170744587913874,0.00013062617543409835,0.0014572428493183844,0.0012684589666118044,0.003340403557667333,-0.0016618533763890315,0.0004267476216771926
-0.00037200335537343964,-0.0004905965248950195,0.0041766823966873905,-0.0011703044131047917,-0.0030134194666862745,0.00041598662406997834,0.000683439473847616,-0.001118797013498496,3.558540810012802e-05,-0.00015911951983369363,0.003371439591712307,0.0010501280371733746,-0.002432433506544616,0.0008385441894004999,0.0007832046216333176,-0.0018577112169016188,-0.003119477879464254,-0.0015466538299342598,-0.005298417170817704
-0.0014714564617583235,0.0012051653958044864,0.0010446654380264159,0.0008686971052317536,-0.002145151762745929,-0.0018398558859763895,-0.0014231004832649487,0.00019472294721156858,-0.0002524372498139316,-0.004384754120819571,0.00022914360260329857,0.0005563799401910426,0.0003638199011055403,0.0048372078128260205,-0.0035947864271425826,-0.00030172089981699387,0.0008597991073913728,-0.0010651138306741808,0.001997693007491089
0.0043626777058405975,-0.002046177443917838,-0.0038466750652896356,-0.0019830747272708933,-0.0007144023043711842,-0.0008929624793224527,0.00018061116853105043,0.000940896945508494,-0.0003610304947322783,0.00034740515725199724,0.0003696524073235648,0.0013329204045228694,-0.00013565050373799613,-0.002318523683113274,-0.002753537758279291,0.0011033730244419592,4.6226970479805975e-05,-0.0035687932090760766,0.0022324969188401893
-0.0007112483737260503,0.0023386220537684045,-0.001115879217794674,0.004519050840363547,-0.0019965112483249633,0.0007134394798523843,0.004142573003740547,0.0002867012462586052,0.002146193972964637,0.001030953448743063,0.002792581592314527,-0.0013414466139361533,-0.0009786843701139493,0.0013560060083661358,-3.5811969097420346e-06,-0.0005063380559345478,-0.0003887040126307169,-0.0034616271824661864,0.00214887959801189
0.001561936112101627,-0.0029262857805076614,0.0017826493151027391,-0.0008187193207939173,0.0019771101566882785,0.0009050066402778022,0.0013693247430011115,-0.002825561391142867,-0.0020952621157881964,0.0005799102575756215,-0.003928781759648439,0.0008870776983958608,0.003704424727563655,0.0007051339872008222,-0.0005571605200714859,0.0029977761715054415,0.0045094965746220236,0.0012226251443851878,0.0001643188723217025
0.0019614044506101693,-0.0007944052838818062,-0.000557300458337745,-0.0006538628311424119,-0.0015489393007661002,-0.003593214708901192,-5.6131583677652016e-05,0.0019859215644858824,-0.0016707467570028956,-0.0008108702997617368,0.0019885959643450865,0.0023278025539970287,-0.0013381924472057485,0.00039979571587521294,-0.004751633819884448,0.0021032207806205893,0.0013974414274526253,0.0015449183947554286,-0.002191678690922704
0.00371854162297079,-0.0033309564810637547,-0.0009072573767730838,-0.0024264510490758593,0.00023737745626436132,-0.0033405972284872316,0.0015035138051871651,-0.0010951528837013242,-0.0007550163810002585,-0.000901943144488389,0.0032222543957315924,-0.0008489575946373644,0.0002999005428530717,0.000624627044052369,0.0011902436241482022,0.0022937817478072002,0.0028861953963670492,0.0019112331155132355,-0.0011473906613223173
-0.003452485637276588,0.0024136411014797944,0.0014479064545356202,-0.00107236591296899,0.0006441237295193021,0.001697128801039444,0.0014963293107770107,0.0037834211411243404,0.0010250171607491595,0.00242571932239144,0.00039997863408075204,-0.001624009228867527,0.0007284589193402092,0.0014314502981756854,-0.0022280690066428326,-0.001278500969987267,0.0032008346910803866,4.5157951113940876e-05,-0.001566914830667502
-0.0015151990076908417,-0.0015530716392235051,-0.0004487526853537552,-0.004365919539767691,0.0008626891063706033,-2.706122811076811e-05,0.002617035080102081,-0.0008198091124418945,0.0003949172421847847,-0.0017708070695988307,-0.0022932637457068437,0.001272312253194837,-0.00045132517213645844,-0.0032433818043354737,0.000501418303557711,-0.004968019561200064,-0.0013126560058646704,0.0004094707719588186,-0.002375873006803034
-0.0004344426073746539,0.0003852026467421041,-0.003365611660718797,-0.006437662474301759,-0.002811722213766684,-0.001395018551760612,0.00221738714101577,-0.0004936546161979004,0.0018468500679498273,0.00029314411204484954,0.0018346789253957459,-0.00166010819010923,-0.001926943348192632,-0.0011656472139432723,-0.0029428236186000278,5.9364458803540064e-05,0.00027422354597893766,-0.0005695032868018325,-0.002744229311924378
7.253441932130606e-05,0.0016151988697957794,-0.0001160860640941671,-0.006002518474974896,0.0015717342494594767,0.001160839693619036,-0.0025778169672478145,-0.003501566402323622,0.0004968434437364289,0.00046500971535782143,0.002246026362020536,0.0010309608904180844,-0.0016661872351620426,-0.0013338880896793432,0.0021005831188881338,0.0023399308163624573,0.0010281722984542344,0.0017680147720058785,-0.000464575285658063
0.0007324113869022774,0.0013472492549331046,0.0022372840443741883,0.0009537356312996632,-0.0032191265417465978,-0.0002802414803536641,0.00220176718697827,-0.0017323540409341736,0.003597653834742909,0.0026398608100655974,0.0045989188557063534,-0.00011745430493499126,0.002621007360465301,-0.002988079879349808,0.0014045003583521083,0.0008926121364953878,-0.0018204640760482076,-0.0007955392011173333,0.0031174644468795693
-0.0015112687549555105,0.0006318498955157343,0.0013796005108781544,0.0016673570204288968,0.0009494926144278176,0.001447741444865027,0.004019961577057224,0.0014605600878723824,0.0012419581104164748,0.0009403781616344678,0.0007201278153554304,-0.0031879527021871443,-0.0027413555905767256,-0.0014377365527517589,-0.0012976354437930985,0.0001955705271391487,0.002110741652750797,-0.0006002471860068518,-0.0005710153702511525
0.0011953499954775648,-0.0009434550575061812,-0.0014606312463045707,0.0015631335866281909,0.0015121897650254186,0.000533909718591341,0.00345122095473626,-0.00033076128274320743,0.0032903548613421488,0.0016515942868324945,-0.0003131927546394688,0.0022534811673699936,-0.0033886616603330142,0.00028014732566824174,-0.003466973647163226,-0.0017077254186477868,0.0012092498277085516,-0.0008490947517074659,-0.002062253735475247
-0.0009367924339385203,0.0039873272911072405,-0.00029786187670637933,-0.0018705964769941026,0.000823299511909988,0.002401055044662529,-0.0009279047099634718,0.0018781657761833912,-1.6238976046183922e-05,-0.0011990008773667394,-0.0030759810800975083,0.0007778459816452234,0.003406593733948273,-0.0005015267519839285,0.0021402166426154174,-0.00048329251631264484,0.0015617912610745614,-0.00021135252207749993,-0.00045783635855963195
0.0013611683763906333,-2.3615552198090263e-05,-0.002233707718694167,0.002268944026427448,-0.0006195705525252806,0.0018151600584905166,0.00016887196567563935,-0.0021030754937101524,0.000463571734132896,-0.00028991643472022665,0.0007976581366605588,0.0005500677011103355,-0.002509253511181823,0.0018952768827701892,0.0033634668325162984,-0.0009339401877285009,-0.004418738803684844,-0.0001091900654117803,0.0028164167780098718
-0.0016521760820981557,0.0005127644887621775,0.001094033578601545,0.0021049068628062923,-0.000332304425925984,0.0026545246237304806,0.002016683514419975,0.002849509178127538,-0.003080612317203145,-0.0041389857843729064,-0.001994174124223501,-0.0022197177110601304,0.0001893870722089494,0.001810129435105979,0.0025761479459957665,-0.003467633165465014,-0.0032411379361934993,9.791983132396841e-05,0.0031150853100842145
-0.0010895189805629518,-0.000684156587670105,0.001155927969438024,0.0014065265566834515,-0.0012487394325895634,-0.0018247588692488657,-0.001083367677350705,0.001130434479954614,0.0009352846937250546,0.0017869261094784782,0.0018839967828550245,2.3931617003004e-06,-0.0005296761254629565,-0.00014833778238536584,-0.0015847864153144733,0.0002451088374226706,0.0016358409042480663,-0.002294773117829177,0.0014162817283502182
0.001441565083258094,0.0015347574565625344,0.0005087377454702444,-0.0010753102162531776,0.0016720120816393065,0.00044390651015258705,-0.001051702839613515,0.0002409441474131096,0.00023155678323021276,0.00013409559626269046,-0.00030087545528107264,0.004593196976515065,0.0005889963488516072,-0.005680629230547758,-0.00038831185496494825,0.0008541846077345698,0.0012837675488296142,-0.0017510794124918924,-0.003107944471458471
-0.002853184895841194,-0.000620136723180624,-0.00177035249072293,-0.0018982014635170238,-0.0004185622904478401,0.0009367414667936352,-0.0018236885592156611,0.0018541133227864771,0.000580378488355541,0.0031192809951108903,0.0020134283622681446,-0.0004286817932482769,-0.0006848661029070233,0.0003270899642996349,0.00454909598725689,0.00026354683530737565,-0.0010899672672808455,-0.0009020040304058109,0.002455141367138414
-0.0017182786099291013,0.0030127877057216567,0.0026154994312827745,-0.0019402628802853595,-0.0017416642507159434,-0.0016932640597261044,-0.0003920637239049599,0.0011668943823854698,0.001279205409772078,0.00032653296456565563,-1.6041215386835122e-06,-0.0016292045719790635,0.0010619031720056073,0.0010145120280395672,-0.00017496867862434244,0.0021025492775573304,-0.0004284710827155632,0.0013507022748224958,-0.0005034708404527671
0.0015601926196454805,0.0005665217165868027,0.003857995162063491,0.0024137088573014344,-0.0002868254201947139,0.0033313410369116892,-0.001297218213873254,0.003054194169006705,-0.00015729657983244832,0.0012077411342393937,-0.004314623085992035,0.002502292489274502,0.003823028554492519,-0.0034795176771208022,0.0010095727961994259,-0.0002945579027287694,-3.694559026266279e-05,0.0013523053099191477,0.0012049087436433288
-0.0023997417089892973,-0.0031042604339170284,-0.002872562809686453,0.0014943726842025248,0.0011246550515886821,-0.0035827644491644582,-0.000609065833152658,0.0028795119440403532,-0.0005675651084812739,-0.0026050472702598385,0.003734736932755834,0.0014487431245219966,0.00010194105978339744,-3.509351502512088e-06,-0.0004591931169654835,-0.0007239146959974096,-0.0018959281546771897,-0.0009642478951666143,0.0018199254768611933
-0.002225748232573097,-0.0023770954613629913,0.0014397801100632147,0.002897638788984319,-0.0016204291286893379,0.0011186066062226665,0.0003236103966535585,0.004362544988578979,-0.0008040346275613383,-0.0011845132148305966,0.0038661101141172338,-0.0034496887768270777,0.000778046333865799,-0.004238949967494471,-0.0024056345281954807,0.001386288251113651,0.0014070492665785538,9.95368065512833e-05,-0.0009787689646953653
-0.0014279848667128898,0.002928482441244387,0.00020912059698780652,-0.0022220565481302305,-6.717567552069257e-05,-0.0017639961348783722,0.0017627571514222866,0.0025139269317481987,-0.0016536970781586078,-0.0011618165252893923,0.0016829524777731157,-0.002683908250036522,0.0005619115890047648,-0.0007916088145498342,0.003319617354749693,-0.000790464933599943,0.0012143747167524229,-0.000666581061427988,-0.0011773080983628437
-0.0006578685106485495,-0.0004077803767788608,0.0011498839812874833,-0.0014979236593517153,-0.002920333659007911,0.002881810160528071,-0.0016988443750991199,-0.002329621188534097,-0.0017581096535837577,-0.001858751631784898,0.0017244544634995981,-0.002445940383368094,-0.0001973850809838281,-0.002118502632578832,-0.0025842391139104972,0.0011435346569626996,0.0022120802009786616,0.001305825573146265,-0.0015147044960867107
-0.0013972171696185883,-0.0003003362290612433,-0.0013168855577546012,0.0019431062867393527,-0.0023045553133340326,0.001172871583429366,-0.0017953036898027733,-8.129017330594523e-05,-0.0023880992443186247,0.0006020778173281198,-0.0005942321904763869,-0.0025021718428173767,0.0006752921248602228,0.002935660590800747,0.00016685737646653293,-0.0019315568108743387,-0.002271403932830426,0.0022024795896416114,0.0014371604027091246
0.0005517247504492501,-0.0010387488368714711,0.0029802874476611875,0.0017854632066470163,0.0006042824224470291,-2.5119170021169342e-05,0.005393324792225123,-0.0017069339882789705,-0.0024333236325287497,-0.0027260059012095992,-0.000594491182121061,-0.0015117508249150344,0.0012028243237348964,0.001704186836860235,0.0014983919145670694,-0.0005374078006744867,0.00029358698842309584,-0.000430950038952068,0.0009807488229388599
0.00044111669667143346,-0.0007448333172544937,0.0002425328383417947,-0.0019857451173708068,1.6166097266855564e-05,0.002559969220205174,0.0017882513381039357,0.00114727571323304,-0.0006547214933388305,-0.0011088851220482866,0.0022279870907099693,-0.0018462836130737966,-0.0015545032676909326,-0.0004199996892557076,0.0002674349811446788,0.0023979078999549408,0.0027023510543400437,0.0033440743756216517,-0.0040977255949841305
0.0020466697014132383,-0.003737970664240564,0.002647615142792223,0.00023206258850691375,0.0017962289687221858,-0.002305435979851613,0.0007777105098933445,-0.003751644517230119,0.0011127216924851611,-0.0017390830027541966,-0.0008985963141473139,-0.0020307030984782603,-0.0008131624441114842,-0.0015459066449949915,9.518097575445664e-05,-0.003672093484190815,0.002810939929151087,0.0013165731499300008,0.0019474700041344538
-0.002522412097645412,0.0011596556272713261,0.0013059325991485102,-0.0019903676171667997,0.0008569153010548221,-0.0006651669607520738,-0.003429102412194977,0.0005876661322836762,-8.622557995551407e-05,-0.001045209128041172,-0.0031046234481940417,-0.0028574297490623767,0.0021120173571708197,-0.0018927609750701,-0.0013546266565227561,-0.0022066729431952595,-0.0013817008580466338,-0.00014818063612245761,-0.0003574375907379232
-0.004118955321194808,0.001247430659151344,0.0017659031841828021,0.0006993128102214396,-0.0023345232338288537,0.0038858849829371983,-0.0004741487260572672,-0.001796024150401334,0.0021098772829023374,-0.00011126714350639166,0.0013539644151109498,-0.0030733532921306517,-0.0012966974325654553,0.001661030869906626,0.0007735863076501843,0.00048131689136036553,-0.0009226992447529742,0.0015465828475977044,-0.0012419679700120913
-0.00043896713535510973,-0.00013908132218712894,0.0023373259014037176,0.0005822643832782259,-0.004139651154442265,-0.0018603622675006245,0.0004980121610663712,-0.0007218757375227643,-0.0026991031200120216,-0.0013582508534104945,0.0016329872402519423,0.0007131438929926036,-0.00042153204992090336,0.0004288660917469781,-0.0028648915459200367,0.00017685604456750556,-0.0046107762725812376,5.5247519169881234e-05,0.0018151750623799227
-0.00021688404055177202,-0.0026124485879379386,0.0009895314979467614,-0.0034500041549720556,0.002059349645341425,0.00018391781634125937,0.002137068730379183,-0.0009573988073047092,0.0006528735807866707,0.0012451182245794916,0.0035108228000613573,0.00135416010091791,-0.0013378392312747866,0.0018570159936752225,-0.0022553581857168593,0.0015954055269248796,0.002409861828043257,0.0016049716434101361,0.0033369420692109467
-0.00205098318566691,0.00031775459994959354,-0.003911059437368948,-0.0009962200108462635,0.000276950178318369,-0.00292577005166377,-0.003686881906058452,0.0032368618511693366,-0.0026460720832902694,0.00036246434329202545,0.0009614655328021711,-0.0008375312093444128,0.0008487579276056319,-0.000745905848676193,-0.0014510824831885953,0.0008329127111825172,0.002595084473730844,-0.0033425031931523315,-0.00023690818617615043
0.000705587118516686,0.0014464453343766709,-0.003458121474367503,-0.004637924852360315,0.0004162309701023927,-0.0024632410382046527,0.0016026011718932613,0.0008919399417778349,0.00040284758439104696,0.0016978092092241612,0.0010368533196226588,-0.0019200505785299513,-0.0011542784823998591,0.00405173628946907,-0.0022046862102037836,-0.0038865008399416178,0.0024497264221350784,0.0015294781343357555,-0.006407591617599697
-8.03912561607056e-05,0.0027757202511925357,0.0006692456288640848,0.0003347047179918474,-0.0015110774851522374,-7.455417429973214e-05,-0.000984543368405448,6.850496407800113e-05,-0.00036647327858514614,-0.003184745978470027,-0.0021530619881420824,0.0026248885298937675,0.0022663783621921997,0.0005863632001746015,-0.0011177001197505147,-0.003307506681641635,0.0005925175299780972,0.00018110270458844164,0.0028593150436947786
0.0003838488114320858,-0.002883854499847534,0.0008491824922065392,-0.00041850913970005357,-7.100205419666042e-05,-0.0012269305625648536,-0.0008057649375950891,0.0009659244735556932,-0.001692066522681081,0.00017577954843110116,-0.0008140178487656093,0.0011697259792741242,0.003077024548735661,0.0007993543239691736,-0.0004282201566611692,-0.0015593906686958497,0.000623843431534901,0.0019085776919436656,-9.501927892917469e-05
-0.0010013431203140682,0.00024214047408698292,0.0009640815018045669,-0.0023199256942197347,-0.003987086322287384,0.0011212319973975234,-0.0005032373096710203,0.00034679923127965874,-0.0005867455320927177,0.0005994718710223453,0.00021044251307279467,0.0021904873924349314,-0.0019261692368819463,0.0016076466956972209,-0.000346916240113114,0.0016165587016593501,-0.0008116577646932085,0.0013581093633335496,4.317421207065031e-06
-0.0009128251203706561,0.00026934155406949025,-0.0042544318910695215,-0.001670326096176945,-0.0005844171648460769,-0.0006579350676376052,-0.0008842640698062445,0.004470261627871358,0.003710770033889946,-0.005512864377811699,-0.002124155850130435,0.0001404735560131366,0.003123122143119297,-0.00043654149483015817,0.002822997757911492,-0.0009632526759348326,-0.0007439367762012852,0.0008239290719265157,-0.0008260883897149841
0.0013100325055219952,-0.00041432133901568406,0.000988380940677321,-0.0008389004806250187,0.0019423546551684762,0.006867520593452342,0.0039035980229257077,0.00035402392826428577,-0.00332844047870924,0.0015186778363177758,-0.001046710047820326,0.004859913477531983,0.0030807201746819593,0.0014211486356861102,-9.300919757983704e-06,-0.001942092880769009,-0.0025718720712396372,-0.0018897635614077753,0.001042246179994175
-0.002321613010470791,-0.00242915061993584,-0.0010332747467324808,0.0001464265924261873,-0.0011027230392131433,0.0011888914553345625,-0.0012137571377078616,-0.0008992612039175206,0.00039486388715058055,0.0011407554832307634,0.002741904952813893,0.0013991061599031547,-0.0013131650922800328,0.0005033177152846157,0.0002767582502856837,-0.0017753755836958476,0.0018756609574692208,0.0006572906193133848,-0.0008346398221102667
-0.0007814279308020248,0.0016190984120813844,0.0014445167935875174,0.0039774686180181,0.0010443329607816934,0.0010527657559568008,-0.0012096285427973278,-0.0015583577875024357,-0.0004595758460169282,-0.0019088083993509643,-0.003658016699322149,-0.0011779330494007425,-0.0024126485690409644,0.001651520265501331,-0.002850880146479122,-0.0011251340722513783,-0.003687843988251422,-0.002557680042722675,0.0011349004237851115
-0.0008461061461337028,0.004789982989404803,0.0014060543543806757,0.002589853364345888,-0.000533052560854032,0.0023901176384348195,-0.004913039558583936,-0.0016434471886378054,-0.002483389911501454,0.00202508120356502,0.0026239590648088388,-0.0009075858818913236,7.373613245069252e-05,-0.0023575130796307355,-0.000822517073236178,-0.0015184490602504319,-0.00034526563109133255,-0.0006266856387378573,-0.0012564550609925457
0.00012036138980313058,0.0021302404409018227,-0.0009845745735179274,-0.001849252681853261,0.0014308956306108996,0.0008026911359948096,4.540966009284336e-05,-0.0010692026630313906,-0.00243843818042562,0.0010078706963701175,-0.002572168336458581,0.0013726840886820512,0.0015835845962873856,-0.0010411429167923672,-0.0003987221344013338,-0.0013283228134404405,-0.0002689176874411508,0.000886744583908317,-0.0013876252205544408
0.001907155014852362,0.001066544747905368,-0.0020301301899688148,-0.0028058272691702797,-0.0013703843525923504,0.0009873678788823957,0.0002734118359085961,0.0003884744465043355,0.0002860460660449091,-0.0011332802531492062,0.0024051328416977214,0.0021822361645640236,0.0030822228332743375,0.0032373999094808905,-0.0019476376197784637,-0.002595024267768016,0.0014745767455773939,-0.0024529427876653262,0.0020133259499703154
0.0009748444576397169,-0.000653139075957989,0.001555135123811298,-0.002191613680890756,-0.001742810653617701,0.0030731152885982147,0.0016648154767621788,-0.001381463173300092,0.00031558454123488947,0.00023069643327613157,8.133067995637275e-05,0.0012270449224519014,0.0015930133232743041,-0.0004562407433711823,0.0017804846217435155,-0.00015265608333899224,-0.0002637567509869595,0.0002771558125083527,0.001137090529229797
-0.0002781624195211235,0.0017240634548989053,-0.00019840029593426144,0.0003855248975528041,-0.0014881523013464016,-0.0016294630354245093,0.0010710943047137964,0.0004685848924748516,0.003163637103027502,0.00498181616494075,-0.0017724520210273345,0.0007857275566643455,0.0014681950625995764,-0.0008057722846297487,-8.714605672068935e-05,-0.004415846275290569,1.9782615877036372e-05,0.0005240463194748626,0.002178133635542411
0.0001852964205801746,0.002131777506493931,-0.0010247550951547127,-0.0029355875098551116,0.00041391810079704344,0.0013771134778169283,-0.0021806107032231585,0.0021256949148919877,-0.0001774918709692762,0.0010408415711812458,-0.003305160114747427,-0.004956681209110393,0.0010790772534237422,0.0014010021232593432,0.0007292155910415109,7.602615509086278e-05,-0.0008217607395273846,0.007194575119109887,-0.00256366538560345
-0.0014991674381349645,0.0008624381130187104,0.0006623392515523358,0.0016540646550562929,0.0025964881125408843,-0.002052114675650029,-0.0001081689127974022,-0.000951761877353655,-0.0026690461387240856,-0.00056676143148188,0.003487627844382455,0.0008272464512268093,0.002613635478235881,-0.000463304894305272,-0.0013462130359822922,-0.0034350987648815207,-0.00013348677510639542,0.0006575625464989695,-0.0012244025634294395
-0.00014656906293819113,-0.001048458183813478,-0.0001523725376226292,0.001627504118417869,0.0008344997333751017,-9.579954398024676e-05,-0.0035876264871322473,-0.004687732138687831,0.0025236559401262478,0.0030077427927088438,0.001591177555490345,0.001426020344722026,0.0015842579357846721,0.0013481165404347437,0.0009048194365018788,-0.0006490145881145441,0.0003713467990599954,0.0006496034977209799,0.0010020004346038033
-0.0017443521285767474,0.0013971555894164065,-0.00012779630293388523,0.0016771981825564914,-0.0001934855071503882,-0.002486102441733304,0.004482497226232577,0.0009113495143691481,-0.0035363557674241547,-0.003491518443883165,0.001932700762980482,-0.0019713659971030842,0.0035033911836536377,0.0019993363684725307,0.001248543455180763,-0.002613628026103357,0.0013654710087285607,0.0011798885642187438,0.0010173791077375698
0.001368807228734166,0.00645582599045511,0.0004985915866186761,-0.0017319174297500287,-0.00019618701308381714,-0.00044514413873395875,-0.0007618048771752691,-0.003736927606719703,0.004696425703621914,0.0002513295794380514,-0.005079974655124701,0.002762843268979057,-0.0009107353554599185,-0.002052605286262791,-0.003122143475151625,0.0013904903295107885,0.0025050099111992635,-0.001726647734935633,0.004206856370542464
-0.0002016561670648234,-0.0010249715348421143,0.0013961870996049537,0.003425281686059702,0.00034120559413001355,-0.0034322116825151413,0.0015441304861069406,-0.00265470813036101,-0.00022505826086237398,0.0022019713900926136,0.0001238494168640662,0.0016405984522078452,-0.0009385820915685932,0.0009053348548776741,0.0012207113032716916,0.00019713996478007087,0.0010357206376043686,0.000666200446780377,-0.0010953039572934335
0.00025242017391489556,-0.0017235283713971626,-0.0016472968947986036,-0.0010096091547194274,-0.0014009489209096868,-0.004098040483694357,0.0029545803101170462,-0.004243263239440699,-0.0019517912718015394,-0.0024255106340763514,0.0002903702036237052,0.00023555891908982882,0.0007674051779804096,0.0013904761957057486,-0.0017406583099981903,4.397623776078719e-05,-0.0035968418001838267,-0.0024111983565089524,-0.0009847710089195246
0.002570480570936131,0.0005671479400214982,0.004081557753415712,0.0021390933758353024,-0.0005102809673924876,0.0008908625007776899,-0.004174384750018184,-0.003257007517676809,-0.0008194099089691753,-0.0002968200274641192,0.0009032012391719181,0.0003867127997618794,0.0006828387646919297,-0.0007801367263657397,-0.001493280630263654,0.0017535938737380738,-0.0010234967113741048,0.001763136950540579,0.0010730027118040053
-0.0010455135439845866,-0.0023513259905148,0.0007923988397965851,0.0003006395751312013,-0.0012905360330906484,9.85652253566916e-05,0.0007460281255241703,-0.0010470710453482736,-0.001043381967050018,0.0003841407284584225,0.0003454342967207208,0.0018420940236123311,-2.0840233917161266e-05,-0.0007703342369649165,0.000640920989216445,0.0007560436413306268,0.0001173855937499003,0.00021770552546615754,0.0028466045248958976
0.0023464329529542132,0.0025496914853674842,0.0020843699677348315,0.0026192258783334205,0.001639882737101423,-0.0014673647803084733,0.0035058877547382377,0.0028418038562636493,-0.0015765855827090931,0.0015679898322342593,-0.002366395054636878,-0.0033406062985698,-0.0002556752961873136,0.00044886325915049634,-0.0011295165818584851,0.0025320574749822192,-0.0022160229952292994,9.795531772336527e-05,-0.0026577976111888807
-0.0004148602358267041,0.0022992595386122664,0.0013590401810786655,0.0014510745522756097,-0.0005250664927851387,-0.0004936081011504799,0.00310859696936126,0.0042607457887910895,0.0019180705910524472,0.000783195746369233,0.004036209885121822,0.0006620585879132584,-0.0008674798283776086,0.0007552092083752839,0.001039767250371947,0.0028288609908117754,0.0006874719094772292,0.00167089866576926,-0.0030443455049695457
-0.0026453652228786806,0.0022724183966440687,-0.001055349044300238,0.0019330120714427547,-0.0003327673897707367,0.00018032326143224795,-0.0026663733003344198,0.004036664595835977,-0.0014078947075453498,0.00015546017472720453,-0.0008744866418008156,0.001449139093785865,3.9327582679056715e-06,0.0031430951178582807,0.00113141692690302,-0.0007545069786022836,0.0026879665269944264,-0.0009488100690960782,-0.00015182321967385906
-0.001243132729085016,0.0019671099224754414,-0.0006275676678929716,-0.0016665562483064692,-0.0013320857666325387,-0.0001838717037828062,0.002685015340718681,-0.003610852126013462,-0.00032457895029170417,-0.00023401153866328906,-0.000633353499492323,0.0011826537482299557,0.000471258359963223,0.0007212709095541674,0.001081163559285845,-0.0003398584185669647,-0.002395497751165057,0.001486901622805239,3.07668489174107e-05
0.002887883131718825,-0.00014902144858932356,-0.0017035515368759844,-0.0021120844878102342,-0.0011362426936075453,-0.001690398862620045,-0.002346867142054292,0.0001606829786987219,-0.0024421353008159613,-0.0006545520484198226,0.001301365808127195,-0.0025815030831507807,0.0010085742984451975,0.0010069253356381816,-0.000730854350439317,-0.0007974586169665808,-0.002335650713097495,-4.7657084185819104e-05,-0.00019392524094863174
0.0009274912545129023,8.259254200767595e-05,0.002469784042484372,0.00034819217771387193,0.0012769674165728224,0.0009544275084777519,0.0023680790416878528,0.001966189214312335,0.0030867284427964934,-0.004325072123180168,-0.0023799106537917467,-0.002206360168210107,-0.000778880857387005,-0.001678460261189461,0.002565769252068972,0.0028933563274296044,0.0036598921144329792,6.087302425321916e-05,-0.0026674418091060994
-0.0032853671258678955,0.00037481035571484684,-0.002108775716246176,0.0011623165454891337,0.0006084922897146717,0.0015904591200302373,-0.0012721961229842716,-0.002656178010007355,-7.020934854230201e-05,-0.0018613404445041038,0.0014035070276283387,0.004398308221714878,0.001051340727299964,-8.678655664322143e-05,0.0026868004908007915,0.002810937329441705,0.00332892729311469,0.0008501216794895121,-0.0009421764851753956
0.001084791582740371,0.0011278587506180489,0.0017772810322351684,0.001711634555901221,-0.0025425115255795837,-0.0008921459311243491,0.0021137470846011993,-0.0001403081301487985,0.0022505031499912283,-0.0032672830751807476,0.0013150548512810265,-0.0008699315697071637,-0.0006622685725336632,0.0020108190303437207,0.0002097912893204549,0.0005508545323775735,0.0016254241959590388,-0.00045467438683475993,0.006137502418990918
-0.0016002479685866783,-0.003035316963538385,0.0030590939775993206,-0.0007167027150569527,0.00033039070235821967,0.0011965740112494347,0.0020391660341220453,0.0011362584437534977,0.001804015795544072,-0.0006514526984340346,0.0001119586502317174,0.0006978501825959349,0.0025459122733272888,0.0006082615359252087,-0.0030904442346204606,5.6791428163681416e-05,0.0013767268102167012,-0.002373535893461669,-0.0014064965477989947
-0.0009676619914826374,-0.0007361417621430132,-0.0012844793621048685,-0.00030485289452129405,0.0014906800499252314,-0.0027127742923240107,-0.0010189234084815374,0.00013788188526794298,-0.0014670943535971433,0.0007937616051220894,-0.0010020753033874918,-0.0028716768661173364,-0.0034635654602723316,-0.0008456450077566157,0.0006428157312888865,0.0003492839135520872,-0.0010229226178011534,-0.001075740504469822,0.0015913599276636077
-0.0014482135280793618,-0.003369957782783772,-0.0017815981105653866,-0.0018730496159616611,0.001550852247107301,-0.003465541386813362,0.0019665397337451213,0.0023139394760535665,-0.0021726872071602195,0.000816402373619538,0.00046873419523420825,-0.001652631323347062,-0.0020047319547871673,-0.001298650060570236,0.002152936526132464,0.0007381835944098283,-0.0001297973052327054,-0.00023124359637941938,0.0022403842900335477
-1.3533701336792655e-05,-0.00020472807406657776,0.0006287582696103132,-0.004219594769830094,-0.0002995342707437288,-0.0046133459917556095,0.002898804601074869,0.0033268795962814765,0.001578401130578107,-8.89265729861974e-05,0.00509158787938746,-0.0007146287022903524,-0.0009895175678094315,-0.0014647897732578555,-0.0022238731362200174,-0.0053937027125424385,-0.0006709994437515285,0.0003055458018754203,-0.0021028261725863765
-0.004271594206091697,-0.0021146380036496278,-0.0002583177079602925,-0.00040077274004936985,-0.004192475317343898,-0.0029667125518565824,0.00038529302942322046,-0.0002486039644103917,8.577230950316727e-05,-0.00012307831006298957,-0.003137255020136224,0.0012695271428104777,-2.6110867941010596e-05,-0.000423335008056878,0.0003631623428253944,0.0015938110734795693,-0.000407534210517431,0.00018471508183856138,0.0022743161645060275
0.0008008558690337965,0.0005306571142226226,-0.001010016071769892,0.0001267847853299449,-0.0025267405368032303,-0.0043598773429185484,-0.0012683750280288696,-0.002573166020255349,-0.00222686745503817,5.3622335191084133e-05,0.00048643680465906933,0.002168256464784185,0.003176250883294982,-0.0017274823582739275,0.002206069345247883,0.001002938453759454,0.003944919079286118,-0.0012535993725187682,-0.0019526585111204924
0.0018782921276687926,-0.0015195546141254922,-1.0283884513282226e-05,-0.0015019073826693455,-0.0005239581914207363,0.0009988910341003569,-0.0003437890807091664,0.0023825432639625085,-0.002850882795324002,0.0009352133093585599,0.00452364950500665,-0.00479211618774577,-0.0023030581742262916,0.0011470916360608238,0.0015701421484547833,0.001518753947337773,0.0010803633435682994,-0.001752346175165664,0.0032694134663927123
0.0021692595823547428,0.0020123791790296846,0.003884867792066844,-0.0007513253913654806,-0.00021131830869426047,-0.0017203145297342059,0.0007597027103461439,-0.0007571277547849461,-0.0004929424873949387,-0.0004330982153880347,-0.001423446117614806,0.00033701992924588806,0.00292491045845187,0.0029573429815570123,0.0005850064815774691,-0.0012221794026271737,-0.00012445279281423773,0.0008052079241910101,-0.0010387494657941104
-0.00358173937676264,-0.0011949971680245525,-0.002510945055315581,0.0036070261704509335,-0.000612652234483148,-1.863136829514141e-05,4.7173315532101244e-05,0.0028241763650438717,0.00031693873578944067,-0.0009634300182889948,-0.002128695567520621,-0.0023657325457180508,6.297178045435088e-05,-0.0002774584445853694,-0.0009746057966522818,-0.0008846924224262262,0.00012345052814225028,0.001815626353739262,-0.0004925369549371273
-0.0039791681297029514,0.0017896083454872092,0.002340268189931957,0.0031952327781614347,0.001788165862197061,-0.004021097534520724,0.0011954029247061586,-3.9473952976923e-06,-0.0030066774271324814,0.005541321393287223,-0.002383692034077243,0.0018721989188191734,1.2126781391072266e-05,-0.0016968279130262487,-0.003304855404746654,-0.0002832156323486404,0.0004598587992785668,-0.001093511366811394,-8.104733476330331e-05
0.00266661485201326,0.0035954583249678397,-0.003036688840697441,0.0009082807285722457,0.001244654830805876,-0.0016353427473568935,-0.00251989205516397,-0.002815840178400173,-0.0011532659734539076,0.0041001412238297966,-0.00043459577917569957,0.0011591531446220394,-0.00238451912238983,-0.0019589579861331277,0.0009096139062775504,-0.0005556235582740647,-0.002449337781563246,-0.0023409183133047966,0.0015879755518675327
0.0005548857571703931,0.004252363067127812,0.0001335315231714772,0.00010861935290414781,0.0019224496359835565,-0.0023570597055168232,0.00015220875282965086,0.0020594593612221724,0.003881511717930739,-0.004525514449796824,0.0030792126299148087,-0.0015723637738740647,-0.0013545794816358558,-0.0013990734335663701,-0.0017598890927202255,0.00030207530745757894,-0.0008785405679693735,0.0019117239367970901,-0.0024409946200644084
0.004152664749989009,-0.001054129896415452,0.0010414695652951145,0.0015251950653956106,0.0006229145614218014,0.001910921680462018,0.0022761340226911484,-0.002009822408396944,-0.00029351560941372835,-0.0011446539695171682,0.0009055213151480853,-0.0026235799155595787,0.0022319083986389932,0.0003135166992554993,-0.00015217385860344517,0.0009161674477116641,0.0011162281664757784,0.0017214871749783155,-0.0016403526441222558
-0.0014477206941204488,-0.0007389010384024202,0.0014187871995369797,-0.0016754882830045245,0.0003150518969392687,-0.0009836759945195629,0.00154026019720319,-0.002634406501874238,0.0015147512337450222,0.002331591997413243,-0.00191417220595808,0.0022603132948478,-0.00027302033308465064,-0.0004863860337578604,-0.0005996404241736105,0.0021146321667007816,-0.0025029077131743568,-0.0006091652279801972,-0.0018369486043545089
-0.0002348941234115254,0.0011922892590200723,0.0038689919612384235,-0.003080185995163359,-9.014264565233697e-05,-0.0017246684696655438,0.002016481590204988,2.5172407627549135e-05,-0.0009140190645912543,-0.00262226081810021,-0.0006757066287384738,0.0021682575406157096,0.00025399160457400107,0.0017365365653423373,-0.0008803989570365788,0.0011057739491573345,0.0008100544491312388,-0.002435538503108479,0.001025100528733954
-0.0018991476578743046,0.001725807956992632,0.0014320880892955655,0.0004148674164141383,0.0017778959591777473,8.559175811238884e-05,-0.0016512459444292084,-0.0009364870329980317,-0.0011873016004972075,-0.0013254356721322926,-0.0018991312655483217,-0.000820073816653874,0.0002829304726769231,0.0014129227070636405,0.004405185036494761,-0.0005229662224120545,7.23708179966173e-05,0.0005798145747798804,-0.000991935295097171
0.001866389969700684,-0.001266428136127181,0.002804090313990379,0.0011971045899421817,-0.0022253567708667796,0.0012538280940824268,0.0006703261981733724,-0.0008803206266460333,-0.001928873384693789,0.002583362811242281,0.0009746117062452785,0.001505074262948597,0.003570536326756675,-0.001124868311816555,0.0010023529348359137,0.002459619701242002,-0.00016918712715145335,-0.00018781009112815855,-0.0012413968230015658
0.0017494274908244054,-0.0012505572070502496,-0.001695990205564597,0.00018021548736877124,-0.00028829098747431745,-0.00018451505337072383,-0.0015906713965812803,0.000757388431988935,-0.0032364002619784263,-0.0029576188154330826,0.002531501785351271,-0.004550485951047747,0.0006375441694180726,0.002243555050202944,0.0010262364919450136,0.0006947409530844925,-0.00043494984919395074,-5.9362694421455666e-05,0.0016783005215708613
-0.0013612998322300898,-8.90382322192605e-05,1.2024913087646812e-05,-0.00036542585953249754,0.001333687385097976,-0.0021392780310968054,-0.003630112182117607,-9.052666508145659e-05,-0.00014760784615994822,-0.0005698866123524641,0.002248308717632751,0.0005429860853009769,0.0021242952490611528,-0.0022484791930980027,0.0012274839226727354,-0.0005547764073292432,-0.00027913900907138354,0.002039814565704804,-0.0007096490868740962
-0.0015989447298235622,0.0011324190087745952,-0.003359923132080838,-4.561016037335897e-05,1.1498931137234244e-05,-0.00028207759145172813,-0.0018557904614171067,0.0012143321098753597,-0.0014224941265451472,-0.0026508676998968092,0.0011651014437187434,0.00011205960555458391,0.00028355028126550495,0.0023570377908368827,0.0037584647463247143,-0.002159757037068624,-0.002872613874466563,-0.0008930888438375067,0.00011796601196527011
0.002034667187597559,0.00035107511612179865,0.00020313966620993818,0.0016614883035860027,-0.002165136636632012,0.0013585937547069937,0.0031832303907658424,0.0015832799998691137,-0.0038658461414314577,0.0007771120788029157,0.0004277927728126205,-0.004785305023247115,0.0005226121297061515,0.0006585234600863902,-0.002171797508368388,-0.002955208957949978,0.0037738618781473277,-0.0006419200260536232,0.0003569383190410173
0.001332368597278598,0.002445231600243609,0.0035052182293758513,-0.004019825494213859,-0.0018646855284097314,0.0008797435144531452,-0.001639658043260197,0.00018122258787473268,0.0015888985091014234,-8.838219027027796e-05,0.0013164038836747441,-6.432615974477643e-05,0.0008603706118410884,0.0026671192867172093,-0.0024247892906246646,-0.0015857787261934228,0.0010591926977291072,0.00032931706589762024,0.0018400053321290374
0.0017280497726916398,0.0017496550504525982,-0.0016760324782647482,0.001865830949967065,0.0004308210790920225,-0.001628752745505339,0.002346924712196012,-0.0005991727554499055,0.00012357956962242496,-0.00023775059740948235,-0.0011845653052135299,-0.0023578528381773198,0.001966944482709108,-0.001102713975837677,-0.002203589701713126,-0.00022151391506276032,0.00174408718210324,0.003367471826116108,-0.0022407112220203538
0.004624860277440202,0.0012891357485856083,-0.0008413275565888667,0.002870277883423569,0.002624648040754028,0.003242250579186676,-0.0015254821398662773,-0.000509751363149646,0.0028082388997778557,-0.0024690772085086245,-0.0009278549605192985,0.0011952860389736406,-0.00329609889402207,-0.001606832129438995,-0.0015301870950258727,0.0009098064314396608,-0.00031194685963680885,0.00047890114022165894,-0.003284340387100713
-0.0024490966617720686,-0.0010335197491995508,-0.0024764134765794883,0.0002037080502198863,-0.003544766279045161,-0.0024873507470766767,-0.0002715055560644534,0.00012131778556338121,0.0008943545341703056,-0.0020122145612713562,-4.1441492079993755e-05,0.0012531328411674062,0.0014403455187684698,-0.0016140009803926078,0.0002679381583752042,0.0015416089163596874,0.002376636828267482,0.002493103348161332,-0.0028754331788307967
0.002177652745224425,-0.00021404406531902586,0.0017545538227718737,0.0025639260679270618,0.0026219067103327607,0.00493403580893539,0.0014138597866422899,0.0022978296623627588,-0.0011147221629508948,-0.00022371175513774465,0.001456668750678025,-0.0012550447155082849,-0.002998477137323121,0.0027666602962870485,-0.001995889937223938,-0.0002496004978407679,-0.0009755781970522076,-0.001978392068335649,0.00040839499683474297
0.0023222068962079558,0.0004983136129524786,0.004312416374955637,-0.00015815023757942512,0.00046719439037901263,0.002253246380360088,-0.0010775904013154802,-0.00011703936756121561,0.0028349786091717067,-0.0005605235185167085,-0.0016730650672921944,0.0007009465399731133,0.000979528632848276,-0.002471447360591501,-0.0012234399664886532,0.0029634508715860623,0.0009061772939109659,-0.000738880498769835,-0.002000856674515221
-0.0015234470022989408,0.0021172572318191173,-0.0004653270423268884,-0.0023913366525511928,0.002395597408995826,-0.0031660563710857984,0.00022316238386439622,0.00437567997046703,0.0005975559349688653,-0.0027917954823888196,-0.002941848618970169,-0.00041601923372584386,0.0014050458855752797,1.9441687961803592e-05,0.0006162194590737106,-0.0010707449699389187,-0.0018428844739341792,-0.0032107500312914057,0.0010097024227237387
-0.0011005387448830665,-0.0007310305766075354,-0.003140876716716754,-0.00035312265143031983,-0.0018536199189640489,0.0003950327390278183,-0.0032999855319271383,-0.002547457251766957,0.001370711091264123,-0.0011921593785947078,0.0015473451535181286,0.002407578087456598,0.00025358434389489786,0.0031793057395777865,-0.0014574047686096141,0.0007410700292127515,0.0018445756458816379,-0.00303041017687294,-0.0018310159431941793
-0.00010568612524720717,-0.003240084936012866,-0.0013692836656142228,-0.0004249842074419235,-0.0009331823108825107,0.0005874779966597264,-0.0032273164005480184,0.003958931515195846,-0.0038808134390197926,0.0019961333436503016,0.0001480931710105834,0.0006176020017131242,-0.0037965779134899688,-0.0012384048529224118,-0.0013629090222238734,-0.0012037697806831543,0.0014850321423889275,-0.00408896989066773,0.001549012707588067
0.00048674068807839774,0.0011148701603475191,-0.000509331816330071,0.0018432544356637446,-0.0028958435613347286,-0.004347387922729785,0.002727720866904216,0.00012592958108606543,-0.00039857622579043977,-0.0030057187350598755,-0.0007618919885998452,-0.00021746422942888605,0.0003697592596787543,0.00029177543622158086,-0.0007824497080902455,-3.1906600139384066e-05,0.00029507889335255144,-0.0003555523507880756,-0.000778392459189419
0.0025911462916752338,-0.0010560751954897534,0.0005924970196472167,0.0015166990157558507,0.0020499195637339084,-0.0027278075828573753,-0.0017745846922423072,-0.001312593282807298,-0.0019666167763873043,0.00010201141477075044,-0.0016498392688744706,0.003162423598989942,-0.0004079238679944159,-0.003856850404656709,0.0006278838328808104,0.0016313916143757526,0.000646559176828659,-0.002887520642391225,-0.002068042664340749
-2.4665108992994675e-05,-0.00028244960948587084,0.001838916355992903,-0.0006283955688002918,-0.0021498563074285743,0.0021498701706594804,-0.0028995433270050095,-0.00015222688079224168,-0.0023125476668295016,-3.726377692677297e-05,0.0015302149859308764,0.0017720618897600605,-0.0005049068737752219,0.0007682965726801043,0.0009000084180467282,-0.0019784313752263393,0.00022445829711853385,0.000978308252944266,0.004963092168497534
-0.0023247679767815182,0.0009217970652304705,-0.0008125366004650001,-0.0010548046749987976,-0.0013533903899265428,0.0025429824565712175,-0.004398202599856061,-0.0005692520813024431,0.0001426239446342886,-0.002009683669088783,-0.0017140575556560704,0.0024511949457930882,-0.004103583078184947,0.002169522092649921,5.862037879970802e-05,-0.0025514974990526362,0.0007571681760729041,0.003138529943350923,-0.0038364210379466693
-0.0014167407274901986,0.0009357494527297718,0.001022871599080294,-0.00010540033156577974,0.0024162549008358465,0.0027773386468286847,-0.004395564294399126,-0.0002109780079837829,-0.0018309560537386302,0.003204642717498922,-0.0017314525286077575,-7.179253818945168e-05,0.002204619246953573,0.0018270939780543497,0.00011526357547408078,0.001236452071431825,0.003901028065720343,8.573296724828991e-05,-0.003494643032096829
0.002792660679334267,-0.0010107983144836488,0.002252562377317055,-0.0018318168393025582,-0.0026809798031111895,-0.0006832155277564455,-0.0010583024872802846,0.0007817606185684353,0.0018279607377038986,0.0024652301657089393,-0.000606063703625253,-0.0019296309697656893,0.00049049205681964,-0.0023133811632578753,-0.0021306625078719565,0.0013207692246752412,0.001363963039788213,0.0006414168583799944,-0.004269925344794724
-0.0010807802241212339,-0.0011413840613602312,0.0009152287361734861,0.0009688710797982005,0.0022888027722780414,0.0004126074887273018,0.004034197328673099,-0.003940184384130246,0.00015759920245212372,-0.0006907065337015054,0.0003894310617683974,-0.004104640328143786,-0.0023769675785015485,0.0012816875920154736,-0.0007870997693417987,0.004776363114679842,-0.0010871831458603729,-0.0032928829526981955,0.00216027850268732
0.0007261008130602702,-0.0005202724748110929,-0.0013033554770687837,-0.0037125096305259163,7.27889134663338e-05,-0.0010487011243986934,-0.0024298184871587723,-0.0011242059506131091,0.0017677642723120234,-0.0010029052556807757,0.0029661859430210997,-0.0018442937985987432,0.003404322289582272,-0.0038032318308908945,0.0005056611295082414,0.0022401407775623186,0.0005284320674933353,0.0030279968422902283,-0.0006768419669115625
-0.0023000778199262543,0.0010293783315779605,0.0005714396730715181,0.0008496955114213825,0.0011529696531557998,-0.0019347385876060151,0.00015875787467732025,-0.001927023594720608,-0.0001512030408100352,-0.0017905120939046752,-0.0016511632560693263,0.0007954378518778199,-0.0021619700122365204,-0.0012325157742717574,-0.0010894629587540447,-0.0015635663837172827,-0.0018583113589362543,0.0004103086970971535,0.002448627428339752
0.000899456582342909,1.1999856328957783e-05,-0.0005079251304627118,-0.003410719901414918,-4.5621347857758084e-05,-0.0014450534623334011,0.0012431158122714688,0.0013395982156586548,0.005545935604083376,0.00027762479992099714,0.0038158049248688316,-0.002566879025911267,-0.0015617909340346914,0.0030948735074252886,0.0007633734482492199,-0.0013423872535029745,-0.0008150139327757546,0.0018314100085135346,0.0029159490681726053
-9.147427020213642e-05,0.0016537983657267262,0.003973672987945724,0.0005150041523953045,0.0012094403619539137,-1.740321981619617e-06,-0.0012602872855824979,-0.0009600657514964114,0.0020987544284567583,-0.00014136682008279212,-7.439322862781563e-05,0.00037030881842001017,-0.0004386298798695296,0.0009164696309374279,-0.0012014689762221346,-0.002520309764560638,0.0021279684375653954,0.0023526799745163737,-0.003657688308096993
0.0036826191425943008,-0.003160676020712366,-9.875211205367055e-05,-0.003308584151989776,-0.0022601736261581465,-0.004573157262543975,0.004308021018387897,0.0005586727087073222,0.0038340023700979037,5.8680436738063094e-05,-0.00387285304278516,0.0033399825983182795,-0.002005771633606893,-0.0006256845777200147,0.0045767076142977335,-0.0010927191040793454,0.0021745421988613404,-0.001225044978852254,0.0005790683366022536
-0.0002564736525566432,-0.0005669593759464628,-0.0005421192773932772,0.0021557050186677253,-0.0008917970657013066,-0.00022484903808105066,-0.0017600400830410097,-0.0008565213005176222,0.002259447170636347,0.0020100416706730117,0.0020446125047168195,0.0021311657013175153,0.0016477008283835662,-0.0003197770235581956,0.001070039413256863,0.0008893879499965625,0.0011424772651650007,-0.0018032903597731615,0.0008553573376767554
0.0025666921368187228,-0.004266420445506769,0.0020553807128279597,-0.00041551012881629635,0.0012518534126184661,-0.0021981762519688777,9.488672979036947e-05,-0.001144425574850307,0.0010657555749137681,-3.785821377427172e-05,-0.0007003179121331149,0.0015348009402974558,-0.005083994092701296,-0.003928968914240867,-0.0002985841104449982,-0.0006223086078644997,-0.000257107440469145,0.0025788527955050715,-0.0019011968457715194
0.0017067609245178706,3.714962627711478e-05,-3.187355100271959e-06,-0.0038558318499757518,-0.003677531463376047,0.002096326611848695,-0.000740708035135061,-0.000939301961988991,-0.004014673346867562,-0.0022386564543461656,0.0009200454222194057,0.002678167869040424,-0.0014840730636187468,-0.0010355775962702354,-0.0011943149975262603,0.0002539463256988515,-0.006028113376716675,0.0024610905270289643,0.0025968095580533542
-0.0003426730160625403,-0.0016976671156916918,-0.0009269097670621215,-0.00200856789256714,0.0016786893514346044,0.0006891918241755087,-0.002745261457690836,0.0020760864356379675,0.0006601997132067873,-0.0023133863306486363,-0.0029559073379862057,-0.003468889526159638,-0.00011687865575090003,-0.00011264428405501356,0.004112168520442747,0.00029404600375447564,-0.0006125062010605406,-0.0007524594424915109,0.00029748909281751757
0.0020291207844670514,-0.002683244720244087,-0.003641185628369293,0.000413340237090255,0.0008713601754651942,-0.001395211666523381,-0.0013372284829510667,0.0010266874301418573,-0.00029669738731443184,-0.0019061566566788769,-0.0021791225787438084,-0.0003854202040652332,0.0018457294591585917,-0.0015994607360629528,-0.0008781025642273614,-0.001385178714740469,-0.0036025877316126823,-0.0008324298374560127,0.0014482822659579282
0.0005552621452574335,0.002158170564492593,0.004630821021114862,-0.0011667713636779003,0.0006533066366730456,0.0017387036153461528,0.0024164467211501644,0.0017294722315988947,-7.788467764121261e-05,-0.002208581828976818,0.0011296886996676329,0.001613523920594288,-0.002990335655322829,0.0010153386626120366,0.0027866690802899365,0.0008489573316615906,-0.0021754035950715925,6.641524498479704e-05,0.0010864614163690043
1.3437576792105057e-05,0.0012913892512518331,0.00030435277512842843,-0.0003491072143049542,0.0028439864059738975,-0.004630262992254201,-0.003016972986957638,-0.00045416680281921284,0.003023621482363912,0.0018179747952287296,0.0021110646548558446,-0.0024439540706557984,-0.002574613728460226,-0.0016535019074731647,0.0011218403178206863,-0.001862159287971349,-3.920178509549063e-05,0.0015891220630978504,0.0019141881266477865
0.0013363483652425827,-0.0005920981472256188,-0.0014967729845493875,-0.002070226129830341,-0.0006712826360672231,-0.0013845110177602205,0.0029698910383047024,-0.0003480006428638152,-0.00025558734895832956,-0.001055173365880901,-0.0010198359427880494,-0.0014456026629575606,-0.002819231305545978,-0.0031838411241254115,-0.0003396788020986102,5.944937212152851e-05,0.0019332133998550475,-0.001377326912569373,0.0003281574711917
-0.0003035428125457572,-0.0010274049136546953,0.001846462613252961,-0.0019520102212442088,0.002012529757536953,0.00041135796983731663,-0.000946545141734226,-0.0007499751224847978,-0.002961054762433713,-0.0004370062970636778,-0.0003790238921323437,0.0016985832021844847,0.000403241032656826,-0.0006642822804920527,-0.002903468367327537,0.002363471877627705,0.003634516804657628,-0.0013447645956594291,0.0009802922917264477
0.003596311316140693,0.0001616345341023116,0.0015533361627446016,-0.0002982207804352185,0.003495504620832551,-7.138296082036542e-05,-0.0023087558596310105,-0.0036403010763584043,0.000356178767625661,-0.003325207126241578,-0.0014130379543416253,-0.0007365796986585702,0.000175782825574486,-0.0008680934546788372,0.0020740546633654846,0.0016390398606438172,0.0016035895112048184,-0.005461704795139783,0.0027361993552487683
0.0007901967409747793,-0.0032329975781484922,-0.0003048974168174846,-0.0021961585746304575,-0.0024513811544676716,-0.00034422269920270554,-0.00019578515233801123,0.001548730950939285,0.0007353532197832839,-0.0013061917915156848,-0.0010701114270897673,-0.001646207833831661,0.0013657952507198827,-0.002314450800624881,0.001134810419051853,-0.0031601374889179907,-0.0014535884666409219,0.0015706628572642828,0.0006083338326542485
-0.00023960256363652425,0.0032592609150462874,0.0006297338735449148,-0.0005151752523894207,-8.426178031409142e-05,0.000940304659743496,-0.0006963531883897326,-0.002864786691294705,0.0012378577603553698,-0.003793853429510791,-0.004245336361011891,0.002932886200378387,-0.0021256760550908476,0.0013070814829233299,8.525199407571648e-05,-0.002903012892848468,-0.001980474919516267,-0.0011326384396605942,-0.0015629603475011734
-0.0011117195009409712,0.0002164918813493721,-0.0021024492063022814,0.00014448765880605176,0.0025611021065797606,0.001104727017379314,0.00026576537430240564,-0.0004033203539232526,-0.0017945961160436418,-0.0010613419166477355,-0.0033413268233378718,-0.002593806501108429,-0.0026761944110315324,-0.0014400965121808345,0.001174379036816752,0.0007734066911680017,6.306649114528394e-05,0.002033600326466583,0.0018976153566010795
0.0011163007593243952,0.001790903718610148,-0.004270153967904257,-0.001808935810165577,-0.000561206953756429,-0.0015998952115954153,-0.0025369932252266667,0.00224392076020619,-0.002773031417817702,-0.000577718057405069,-0.005555654668785704,0.003550683244390577,-0.00040495635357382895,0.000783126957536018,0.003096286342050767,-0.0004170071124384434,0.0008744752718868085,0.003952403135178923,0.002092116783185551
-0.0014608544410571718,-0.002055968940184105,-0.0018391271514457182,-0.00047456136355722255,0.00030547963120069874,0.002336316939054825,0.0010313905347947357,-0.00030218333216240487,-0.0017603069102394933,-0.0002807976660715149,0.0034083765791355263,0.0018166249687334673,0.00016058459295898656,-3.4297698242128464e-05,-0.001348840821442911,0.0012539315380728235,0.0011548875806763777,0.0004809154641680251,0.0012294917149568013
0.000777411745671402,-0.000272864947787921,0.0013391326323057623,-0.0019223244422500113,-0.00014982357321374868,0.001637180679918922,-0.0016694494423494667,-0.0001461555394377886,0.0008696031946055331,-0.0029401487025458423,0.002818415049343225,0.0009968056836425253,0.001554934192702237,0.0014352459273082345,-0.004197836142466944,-0.0003949297187640198,0.0016086010146583176,0.0013048995362275287,0.0021769367539984865
0.001414899344690581,-0.0013248729870576662,-0.0019446613104344616,0.0008354626434347263,0.0035210577108942156,0.00045604465212117614,-0.0030478043912077497,-0.0005458691148490845,0.00038864474636241637,-0.0011643257650874475,0.0010259867281727474,-0.001403901493762328,-4.260704513336343e-05,0.0017084687163701866,0.0010901694576663308,-0.0005844467475229245,0.0015980604949187335,-0.0006687742138319935,0.0012342175434752727
0.0013995307734278675,-0.0005454654610973442,0.0014908618644140339,0.0004919669690970366,0.0012165472457605132,0.0010516198072325195,-0.0008548231714555591,-0.0024112876217978565,-0.0025026428323059635,-0.0018938012643929239,-0.0030435217410630954,-0.0006015045868815803,-0.0017486039847751256,0.0037667552672573505,0.002523176639876248,0.0011037702963508694,-0.0004361148657880956,0.0034865665793122115,0.0023851961254765497
-0.0007140556591433868,0.00362236573375387,0.0009434625979382525,0.003419335643830819,-0.0022043155920228276,0.004505680370035119,0.0018219055762592991,0.001395605175452494,0.0029429082833592798,0.001326184986840579,0.00033904240196723766,-0.0033668681383234255,0.0019101187477140126,0.0016528929213225213,-0.0004658114984074103,0.0008558200057891547,-0.0018538698408956246,-0.000249624955902674,-0.0024024461853644247
0.0034050665549424175,-0.0008264188261915537,-0.0017367995227651049,-0.0003897585460038049,0.0023279959027732514,-0.002668489173359685,-0.00020909174295126104,0.0009852560051185008,-0.00015830649719057112,0.000249055035856665,0.0030764315464343853,-0.0027782387958299967,-0.004113801475465774,-0.002037365055337217,-0.0008899102939578176,0.0026776965046101104,0.0008327089983264227,0.00030401492830764356,0.0005459063624450088
0.003069172761475275,-8.403557719980266e-05,-0.0027959310961038195,-0.001688546010430899,0.001930993648777148,-0.0009960163304652827,-0.002199966989884996,0.0007242056020860683,0.0011613238382119652,-0.004980582323427637,0.000773687689202126,-0.0030313729525220504,0.00048536382741598614,-0.0009570455119185007,0.0032099160062170266,-0.0025934424601018065,-0.0013827735881146175,-0.001540824666441006,0.0022585037141538
0.0027737519456652988,0.0012766049101201812,-0.0026214506750059327,-0.002580771838895673,0.0004400901188889802,-0.002817771717363505,-0.0022909319422638945,-0.001961745160068886,0.0006705509531622124,0.0039000512841595378,-0.00028028816759755146,7.90934560675298e-05,0.0015280909188101464,-0.0011420323005361934,-0.0019736082384444083,0.0009652779976091275,0.0026383482944675267,0.0010243218007490252,-0.0007970740261760046
0.0002920615906555001,-0.0003539533107216188,0.0010605063269487976,-0.0022507608984319405,0.003941136086636388,-0.000411393740118012,0.001725292309074781,0.002121752839147306,-0.003371182263515232,-0.0010025184625595662,-0.0013199189165150308,0.0027972980224396623,0.00043146120130432467,0.002162108493588743,-0.0011892597518359375,0.0017354828848218603,0.0006776782666196342,-0.0029206847413807877,-0.0019213188009983085
0.0012884589599784031,0.0004776352090077631,0.0041833465359481315,-0.004035894756621455,0.0005217589286086523,0.0005844707977119395,0.0015811837937555315,0.0008902210949461555,0.0012201383380782574,-0.0005892882546501398,2.7693677863213868e-05,0.0014163909357550277,-0.0002850628129654667,-0.0009251645094934598,0.0030188296501664305,-0.0012727605745105526,-0.004504765770192709,0.000819617768994247,-0.002134717911737454
0.002181473772797523,0.0011842242551316513,0.001925173872450428,-0.0024315063690802515,-0.0035951626558402626,-0.0005170200122936262,-0.0036821546032015508,-0.001859603633328,-0.0009124374330628546,0.0008424321715551416,0.0010268794919912417,0.00044730087389918157,-0.003118583475742372,-0.00011019850443242575,-0.0014338538647354314,-0.00013701977871227825,0.0004293352248145916,-0.0019250330871542832,-0.0010944439411143517
-0.0017612980001294968,-7.668044517909158e-05,-0.0014283615405467102,0.0001591987339544619,-0.00133646963184451,-0.0015975607286930562,6.279475010951132e-05,-0.0019827180320252367,0.0006309554593685044,-0.0008144452022361323,-0.0019891237891981254,0.0004837033716248649,0.0001159671423536733,-0.0013055671570976638,-0.000729691021958998,-0.0008259992403266597,0.00026318981037900895,-0.00017393690785354608,-0.001180458182557294
0.0017459454165915027,-0.0012618443096823592,0.0025861212564905886,-0.001570385156097739,0.0002893256922379895,0.0017319501446779002,-0.0001960309009172725,-0.0020790367662384163,0.0015858618002728647,0.004310339557020735,-0.0011112985484979401,-0.00010694445890965733,0.0003442220316750048,0.0003417482326650613,0.0006279177956104461,0.0024753397975971723,0.0008372951949049225,-0.00040802284254938667,0.0018115825590247034
0.00252632998098963,-0.0008114605519137936,0.0019978510395653056,0.0023644493629735447,0.0031305297320084933,0.0001344733784719586,-0.006349926429584028,-0.0016074460861723993,0.003776170992513399,0.0019962933611784423,-0.0001801580844070925,-0.001406443815046521,6.834391778126573e-05,0.005804854812323974,-0.002915418530527554,0.0012290776538144404,-0.00041186089431332804,-0.0015108226526375753,-0.0023985045395374287
-0.0012035623033247015,-0.003763305042508323,0.0013802933325466641,0.0010764056415578942,-0.001028128659874602,-0.0027153317017490205,0.002465249539712546,0.00034930763665178607,-0.00018900059060733592,-0.0002424253544520831,-0.0001146228274192535,0.001236164131043664,0.0014862149364692223,-0.0022720823960702304,-0.0017684030062771483,-0.0012897899888542647,0.0024405679838826006,0.00013159177588230816,-0.00013392393780989684
0.002281303268268468,-0.0025563482577019383,-0.0028621553993667987,0.004487048203485956,0.0018185665276638078,0.0020771710622106867,-0.00037619849177392893,0.0007714271312496057,0.002242227911170677,0.0009467208706989825,-0.0009577911750129843,-0.0010590589830451872,0.0014765862889990025,-0.0010795752081823955,0.0008033518995384184,-0.0031787064645750107,-0.0019169227441758186,0.0011198792905709697,0.0004234905725983467
0.0009170903535708488,0.0010368540958660894,-0.004033559448198096,0.0002463713063856128,-0.001498822314768397,-0.0010200540844008993,-0.00033318636747447746,0.000691365020371854,-0.0041161426586709465,-0.0005705174275497196,0.0016987539794622827,0.004000577381842336,0.0002251297432572021,0.0028804148642486804,0.0009854040048971658,-0.0005052806997533708,-0.00047141935829245044,-0.0018552729892123679,-0.0011369548800914087
0.001208033608207853,-0.00019536456085524214,0.004888550445402226,-0.0010161975926575124,-0.002725766942395996,-0.0016460338496611855,0.001039540913629316,0.002357470072509438,-0.0025152370035400064,0.0002704112920282649,-0.004015163841474407,-0.0020210294278732222,-0.0003504145405681074,0.00041540421502776564,0.00026545860159462393,0.002600218640057541,-0.0021240864276202876,0.0025748895403547682,0.0011359463184022448
0.0013786478813069718,-0.0010833645383156406,-0.00033639615740580615,-0.002404736046883935,-0.001207459171950896,0.00245940656753208,-9.884203707955016e-05,-0.003316587173387664,-0.00016873240995466974,0.0006112223750241148,-0.0008833718115269182,0.0018626194369972698,0.0033933266138064604,0.0007510782524330461,0.0011896680795404487,0.0016891028299011036,0.0014627912156155306,-6.307147316336292e-05,0.006642949131533965
0.0007852628139005784,0.001113897490331248,-0.002201489962097199,-0.002913418474949745,-0.0031434630598017356,-0.0027265588111833727,0.000959139068569286,-0.0007863686466248395,0.0007354685093043836,-0.0023274966435583087,-0.0012177915203912652,0.0030189679925680703,0.0009195382625743817,0.0007227447564863805,0.0039424942296826734,0.0014720957260878512,-0.0037515227167079068,-0.00019896483714636277,-0.0013912767850099163
0.0022678006250396307,-0.0027874235455194415,0.0005942534177769801,-0.000602618772691939,-0.002518397004427714,0.00044083990529508016,0.0013538088989309873,-0.001008000440587264,0.0026861735951287584,-0.00037330512415334396,0.0006120409275101588,-0.0022605959553335486,-0.0016373431402490778,0.002310481983063178,-0.0006568068501490277,0.0016190823603685351,-0.0006144436392787158,-0.00023229918348480525,-0.00018898932641557513
-0.002348897208078449,-0.0035351729813,-0.004683665842059375,0.000965106619529403,0.0015678404055944684,-0.0038505682996665272,0.0017143366005141665,0.0013569113617840653,-0.0002286774396082272,0.0014478488612312142,-0.0008521577597197203,-0.003104726290968535,-0.005313917999173513,0.0018033130550436406,0.0021066292253887906,0.002126574238806434,0.0015018876314129902,-0.0018752631115343346,0.0018261641495260397
0.002518361381079638,0.0009582189967839457,-0.002851860564781016,-0.00033600844710587863,0.0007820719865334729,-0.002424191816518245,2.0730371933601684e-05,0.0017979877818592228,-0.0035921389402075285,-0.0004272360573862188,0.0013851771466268474,-0.0025480690968921514,0.001310808692398413,0.00046362430466951145,0.003998967536347815,-0.0010559259643350808,0.004985135024255521,0.001878025471862463,-0.004448956875305827
0.0009566622144659207,3.229465706335522e-05,0.004026174170346363,0.002624725178775101,-0.0005530819598254012,-0.0016922581838182244,-0.002837934995160482,-0.0010690522961769402,0.004035790581264952,-0.0001342165929014616,0.002264157862505298,-0.0010904211052116532,-0.00011301626666074782,0.0029692421555455035,-0.0010209534665926478,0.0012762603564607997,4.118217746905879e-05,4.21933242609851e-05,-0.0014744275820794154
0.0025180188020575557,0.0015418809341502706,-0.001067912636173101,-0.0032812784814965066,-5.9709782660289904e-05,-0.0018263914510796384,0.0025958179827454053,-0.0013481137894942575,-0.0002894033885564415,0.00045708764914056835,-0.00030407569483894214,0.003916036751080199,0.0027433558923255635,0.0006519645451269776,0.0014945454487640404,0.002242217313601142,-0.001195158112024649,0.0045491166024852914,-0.004826918633468327
0.0009924893193955378,-0.0027790187118903204,-0.002954672967970943,0.0014866871203770607,-0.0025338665914589123,-0.00010068153814969964,0.0010091349068181749,0.0001896685596868972,-0.0003151078673971316,-0.0005538224815505834,0.00044156945019061574,-0.00041602200467277985,-0.0009944369912625883,-0.00011643801981925908,-0.0012361666274143957,-0.0006092453265952846,0.0013681738532559573,0.0009578550326576736,0.0003702169882268666
0.00201657144386585,0.0030874961051991596,0.001916021832556621,-0.0033431729231840203,-0.002459539093929884,2.9909774468486983e-05,-0.0023633656438787087,0.0028902930747549457,0.0029505858477837676,0.0032745939783603577,0.0032851543180441515,-0.0012262129109979739,-0.003913469564057258,-0.0011128168936892294,-0.004549061055067959,-0.0026935420541751983,0.001590109799719634,0.0020694532657051985,0.0015342371693933406
0.0034753052152192874,-0.0011315355315949958,0.0032759847963180176,-0.00041210959232950225,0.0011963564712576906,0.0010915645691822612,0.004614625171603006,-0.00025089943870881083,-0.0014032338817717644,-0.003948295405281202,-0.0015392997616642905,-0.004132180021669495,-0.0018090984764449992,-0.0011815736770310946,-0.003109849903317315,-0.002246500196993577,-0.0007795329609548356,0.0003099814354212967,-0.002602085853539715
-4.361282253005414e-05,0.0010261095751843623,-0.0011942206076159501,0.004360044415037458,0.0032605596890229087,-0.004153625651971201,-2.1897142440438233e-05,-0.00037438137740998593,0.0020385254734383764,-0.0005362716757198108,0.0006904918357562658,0.00612984702835518,-0.0021149736675028746,0.0012459889425397675,0.0015619705442579377,0.0012919424970504825,0.0006806656391497123,0.0003747286852730186,-0.0021223660762863827
9.330309185002494e-05,-0.0008564205021009241,-0.004132918640829788,-0.0001479795088568889,-0.000320425789796339,-0.0010153624113535791,0.000491775303714005,-0.0028320485604291365,-0.0011686848133711724,0.0022497461506466197,-0.000682590072020727,-0.0007072086655792317,0.0005289212084457174,0.00016856020410079318,0.001570468781936656,-0.00395225745166145,-0.00027348579701773416,-0.004931410155055515,0.000306934544854363
0.001730077494199925,-0.0020598115246870563,0.0001756994255683722,-0.0014504312030488957,0.003442897467893188,-0.0005913549373779867,0.0031247135041568403,0.0007128745082665855,0.0004516667751755267,0.0003466857508187824,-0.001877489252258066,0.0016367471403788483,0.00031869700116580964,0.0029692689945262844,0.0012034716603356113,0.0018103617355627712,-0.00036253911551550845,0.003916609087298225,0.004486950883527056
-0.0004238770533311965,-0.00037870521016387113,0.0007126899352928976,-0.0006075994645457584,1.2617436391493865e-05,0.0006053077503526263,-0.0010321278490582294,0.0010555471269185872,0.0012316543365222905,-0.001706901261006435,-0.00037957434592204923,-0.0031958170941199697,-0.001545884569462549,0.001199662493356662,-0.0001250873143962683,-0.002964869544499334,-0.0002557891493326711,0.0008985091194868064,-0.00048219878228354353
0.0015681229416163712,0.004022538284368888,-0.00306159266826021,-0.0026093444566864946,-0.00010509041271101997,-0.0005631980183073991,-0.005178720879023,-0.0007263441102567483,0.00231592826775203,-2.2126186011690854e-05,0.0017735330585590963,0.003151400902194737,-0.0016141448181025229,0.0037315775212823418,0.0010986144256914057,0.0019112497312036942,0.0011217733339498087,-0.0007395599030019498,-0.001317229090690506
-0.001797479298698221,0.0048510098435494186,0.000437704485176745,0.0014351026608449048,0.000777752399435608,-0.0012736157089790231,0.0013935921267410373,-0.0006734474407492044,-0.0008929932427656486,0.0017789408493953643,-0.0003790832087651294,-0.00308107201186307,-0.0019110417475410074,-0.0018626215761868546,0.0035685912656653585,0.0014672778286109623,-0.0021182649251378495,0.0024251896016384633,-0.004501962005541648
-0.00033164791060009773,0.0012209385106751746,-0.000623850056140525,0.004290418606425098,-0.0010790208538833518,0.0005687590699138838,-0.0014063259341823807,-0.0019384441481830772,0.0002588706994699503,0.0010366030621591573,-1.880218829340288e-05,0.0020042868860684873,-0.0018773682102306893,0.002232962050963882,-0.003043772903064217,-0.0043293600054331695,-0.0005430517709423901,-0.0007037745081057215,0.0004160166468605853
-0.0020546301756377153,-0.0037577345209878293,-0.00015208053483002239,0.0019630542019037607,-0.0002484353175349455,0.0004479732168456167,-0.0004969446888394086,0.001829196956831463,0.000978070590569254,0.0014657335509345787,0.002336716950213926,-0.0007738878415785459,0.0014676452458590994,0.0002241132708562013,-0.0017011739408378228,0.0014541444221397811,-0.003334503609158893,-0.002424418623727609,-0.0004135311355403511
0.0033073266055937862,-0.001380112504223687,-0.0005732988267416867,0.0005937876499394716,-0.002007937368766771,0.0019858725745697846,0.004842441964907596,-0.0009405282108912744,0.0016116468939387759,0.00012725922455838538,-0.0008057806785267336,0.004672409731762046,0.002305411668504022,-0.0024566070855171866,-0.001564546314092202,1.659510274067648e-05,0.0015191490512025069,0.001006017680237601,-0.003711122948669194
0.0008357839395809942,0.0017524393246418062,-0.0009507293984159699,0.0019135258383257,-0.0009746062339854673,0.0007445607991895789,0.00023933581610123574,0.00014344961013334015,0.0031426169555022893,0.0007416639593158817,0.0001127741508211763,-0.001487272787731803,-0.0016132991893444957,-0.00292871329792084,-0.00420116769012367,0.00046896062593331905,0.003151733639010974,0.0028739009932406386,-0.0003387714718507466
-0.000997821832519209,-0.000558897999173527,-0.0009592116324641676,0.0014882346227986618,-0.002308407469405376,0.0023497554578715205,0.0021241243618204037,0.00014927669943316676,-0.0008703134901841383,0.003208623643626875,-0.0018121028524182123,-0.002232509445223573,-0.0012576662548846758,-0.0021939227764280244,0.001642482045724185,-0.0032508784733622786,-0.002014034008956115,-0.0011794785690135195,0.001131101901820237
0.00044397197315552235,-6.739089896818126e-05,0.0029717075196829834,0.0025896232688507525,-0.000884732833576241,-0.00029083274795150144,0.0011063375798327187,-0.0017381183214968392,-0.0018472169776070537,0.003351723619603051,0.0028621320573947945,-0.0021115161612222494,-0.0009233449830869534,0.001589300326203706,-6.905180723587144e-07,0.0005004261659088702,0.0013786150784620924,-0.0006400721042051418,0.0014367633930641875
-0.0017245422714673143,0.00115875184373425,0.002068766395591752,0.003287669202857432,-0.0006193191001843518,-0.00222434624315595,-0.0009024386100083596,0.0025272782181207914,0.0008040992949816837,-0.001595964767815275,0.007587672032689229,0.001094528649185715,0.001618895571243444,0.002258873131403214,-0.0032233443519893283,-0.0008338183727615607,0.0021285318285784683,0.00016756686381423652,0.00043419691106951673
0.0003635023186307765,-0.001796350015924188,0.0005280821017298416,-0.0011833201125985018,-0.0008830493191800289,0.0005417098249032152,0.0005003540299743272,-0.0001294902325466457,-0.0026918143778791193,-0.0011182879326906553,0.0012375617365785998,0.0003334145712604206,-0.0004239981471176475,-0.0008342987976534855,0.003495226608191332,0.0008223953560491024,-0.002413460390653994,0.0024379009873127977,0.003200774307260948
-0.001716758264177493,0.0020503654676361097,-2.078658898476014e-05,0.0011568132963279004,0.0010489355170912598,-0.001375069711648109,-0.0021216942287810986,-0.0013138037301519286,9.403898208576567e-06,-0.0004906289626952203,-0.0023128669830453537,0.001868868802296397,-0.0008347795161000004,0.00044073339749917226,0.0009051540140719318,-0.0008687546069659085,-0.0008931513558362236,-0.0009358887361928188,-0.0035687095236566417
0.0009764743007785257,0.0003393260285156377,-0.0015921762500199332,0.0005934570481186133,0.0018343066954005856,-0.0032339085472869724,0.0001992286196408078,-0.0055827181672637805,-0.003679220912805731,0.00030330523274744997,0.003112196998690557,0.0011458916934891767,0.002010819796596644,0.0015176336390633873,0.002014897343877291,0.0036427281040435524,0.0006299649479215382,0.0021502840751803265,-0.0019955833040009832
-0.0002939287408576362,-0.0020087213210143234,-0.004710263374241637,-0.002265013292950693,-0.0011021443671277698,-0.0003183781061628498,0.0009612131844682888,0.00015596480175313066,0.001690735098411019,-0.0017147126212093656,0.00038569737268124134,-0.002279435138376503,-0.0026652714225433045,0.002668221872418952,0.0021171668000055125,-0.0012430118440820057,-0.00022809891153474806,0.0008147260002845614,-0.0004021458699483358
0.003950605398013947,0.0013743665019210552,-0.002566356146714452,-0.001935027014092256,0.001281958345432133,0.00018274715770917526,-0.0008056123755652936,0.0012359055751842677,-0.0006661187819259177,0.001096695841700055,0.002936513711240619,0.0027073614891129695,0.0037337063678578083,0.0010886989528926135,0.003274473793871924,-0.00017486015681439745,0.0007269861772597046,-0.0010279128791622835,0.0037030468036381376
-0.00046901252145720943,0.00016176570220289289,-0.0009336463346284953,0.0003438397803178176,0.00042365771234888623,0.0016134275070372726,-0.001984832933016235,-0.000181867404827848,-0.0006932466116513538,0.0001539808760193942,0.0005699214893739279,0.004306332476485435,-0.0003727691232440251,-0.0027168615744719675,-0.0010434273914423113,-0.0005407449965739924,0.0007275496314105362,-0.0007644013809048173,-0.0018209794768070805
-0.00033895468188304805,-0.0016626373909043376,-0.0008884000037381563,-0.0015122955290594263,0.0032582897124203473,0.00015719962629587392,-0.005338643006346112,-0.0005511795238273755,-0.0009073093170192353,0.001492489061226651,-0.0010643905789578562,0.003156507665854291,0.0015289477015250298,0.0015453412432547373,-0.0018191676993087936,-0.004556821491663438,-0.0026342561719094417,-0.0006052663502134707,0.0024172392798121325
0.00010646685438750028,-0.00034521658180433927,-0.001020515971008249,-0.0018913938769062816,-0.0007110514015138398,0.0026834894652899405,0.0021997602066721788,0.0015647687966265948,-9.878290243626011e-05,0.001575872117006832,0.0015894077756827228,-0.0026938620430632496,0.001837836789803532,-0.0014706383382601953,0.0013341643110328608,-0.0007542389663862338,0.001130821629777687,-0.0020825949195705986,0.0011980788817901938
-0.0012771465095150199,-0.0009602662340853958,0.00031307267661632657,0.0026725164277800533,-0.004935246077698419,-0.003143254540830412,0.0016731088049638289,0.0016044461470409816,0.001132229114191284,-0.000584877115266332,0.0005538384146355588,0.0024142377171314025,-0.00027679923457708274,-0.0020476071867858493,0.0010866936300905445,0.00017449854178890569,0.000424071783895344,-0.0008065331265097546,-0.0022687235539046403
-0.002307697161982919,-0.0007769866857721189,0.002780522910488209,-0.0015636828315167537,0.002998978452755303,-0.0006020957538698343,-0.001608477002944523,-0.004971972720991649,0.0015324975869200487,0.00116733732300702,0.0009187251230210992,-0.004085918983067467,6.527192623230798e-05,-0.0013082841824332398,-0.0038262383041981823,0.003059305377936656,-6.060073209593876e-05,0.004641538612679845,-0.0014967830861691083
0.00040644576449909783,7.87364308864354e-06,-0.00020462223102113615,0.0011399869371320431,0.00029252761788446907,-0.0028823813060755137,0.0006735342217467724,0.001166235002391916,-0.00023223176899483806,0.0005995133292974681,0.0015091036904446833,-0.00019431406683743108,-0.0012327706201086435,-0.004084397744377903,-0.0040879083570507764,-8.052264839335541e-06,0.0013943111991510503,-0.0030289022459516796,0.002726380109364585
-0.0026941449735731968,-0.004382815910237717,0.0029439978419324503,-0.00041240436881821404,-0.0018933625226406116,0.0012533037816424735,0.0008069623098457131,0.00036497577713650605,-0.001174994210169847,-0.00041257181064069084,-0.0006166703508333914,5.0825617933173064e-05,0.003546518198311953,0.003389759967794264,-0.0011971157117666967,-0.0014065068323869073,0.0011833755777369275,-3.866287319676195e-05,-0.003007415253360498
0.003765207528523443,-0.0007417511684215158,-0.005069902705777353,0.004301800176049567,-0.00047808038869345966,0.001433012722558272,0.0034302596248099856,0.0004744343750030652,-0.0036856343557179535,-0.0030780820067904655,-0.00017699497607696584,-0.0014475290326745138,0.0016741874654176707,-0.00029773582184349753,0.0015537903244571476,0.001050326586885353,2.1992319011953557e-05,0.00010951860037375565,-0.00019076229753632333
0.0005955937781440622,0.002877486910955413,0.006909354568261539,-0.0020230795005080336,-0.0035830658482463636,-0.0022805989957579956,-0.0014391635539417547,0.002543425441533636,0.0015028724913123106,0.000459033843021358,0.0027935976583378062,0.0011574449113833179,0.000457692687234637,0.0029225686220454307,-0.0012375561195953344,0.0038876922703138445,0.0004926204828167739,-0.00023599117773903043,-0.002089039461953648
-0.0013191742734779417,0.00028289605263543397,-0.00036491424262528194,0.0010131912302234999,0.001719447262836767,-0.003090480713898179,-0.0037314004935407145,0.002580502810057147,-0.0032914192202133635,-0.0032218643784358678,-0.0028887427859252027,-0.0015130419908282466,-0.00031211075639903655,-0.0037548632526689077,0.003248241738326821,-0.001577814949405545,-0.0011876741137454411,-0.0012353784067546667,0.0012703483612750458
0.00048311228466971044,-0.0016352808005739628,-0.0025381208157247716,-0.002436833446843055,-0.0017801851348432003,0.0011818685217939507,-0.0016354962433259475,-0.0025860990034067416,0.0004893636175518608,0.0008704883950949403,0.0013841139291383994,0.0008736136689101715,-0.0031048629700651744,0.0008700798690420189,0.0014969477760304992,-0.003778699128194473,-0.0014839212048664053,0.0026999994449926493,0.00031242994612257934
0.0009822424266886071,0.0017701280310409436,8.582276795657918e-05,-0.0005659072689521902,-0.0022320020419924038,-0.003329635213479385,0.002838489534911946,-0.0003246437149721532,-0.001245044188210684,-0.0037428158204574897,-0.0007203569943176072,-0.002496133338595798,-0.0015756882319292868,-0.0037799710045790798,-0.0013075538023920555,-0.007539658784262266,0.002833289342508763,-0.0012430677078890313,0.0002446938460903662
-0.0018696570181091108,-0.0013983767884611085,-0.0031511231248633536,-0.00018443005870824125,0.00011859649666878268,0.0006446195708874714,-0.0007674587154655963,-0.0032944746720095885,-0.0004780138139910462,-0.0013700805538385322,-0.00022063204377653533,0.001025335684474854,0.0015998054367634992,0.000933289994789849,0.0008901295698913649,-0.0030625456521749,-0.0004393607394997391,0.002389173513150588,0.0003053775142375096
0.00021720704823116602,0.0027571411638302678,0.0006703287117327641,-0.0007904818663823193,-0.0013540031758647866,0.0006166137662044956,-0.00018517178459403054,0.0005606609810000059,-0.0006894260935480796,0.002336866674251891,0.002245771284688873,0.0018837652351250721,-7.597800375009004e-05,0.00026543321789256036,0.0005455510863108041,0.0046677330923719975,0.0033656686449871427,-0.0007242692248274616,0.0010265630778722302
0.00034305310008430197,-0.0005526839748752995,-0.0016182941334122996,-0.00018909066033543327,-0.0006018733373247979,-0.0030894931307409246,0.0012558334625860903,0.000345945388965691,0.0036441265991275762,0.0025991614290001796,-0.0023085689570328805,-0.003522926444721519,-0.0032405153196421797,-0.001746099401442377,-0.0009556114929063799,0.0008589936039860333,0.005415154317786264,-0.0018581418358697816,-0.0002050278136904923
0.0024786494994183572,0.0029580868620027114,-0.000941585541655922,0.0017362444243156508,-0.0007290480504151906,-0.0018820379238788485,-0.0009794902982043342,0.0007241466348661823,0.0001944104326939315,0.00028163266115952364,0.0011592801547881206,0.00011886290250271406,-0.00435816091339131,-0.0007007714609170519,-0.003853992197976723,0.00015871381109597976,-0.003876225440492939,0.0015384563940845182,-9.186104721407612e-05
0.00019945990762348595,-0.0019671274017109513,-0.00018472847275576137,-0.0012475213391057733,0.0018050377983761536,0.0005627976264684359,-0.0023865530304367495,-0.0001878468164572562,-0.001302436848925765,-0.0012183892799574418,0.0006060217397512158,0.0013669808562084176,0.0011493980690928218,-0.0034872861731785943,-0.0027574188856282172,-0.0014446425202614586,0.0003749418510689007,-0.0023690437176273147,-0.0021664413660238075
-0.0007521683905586368,-0.00019698062977522633,-4.570562172507211e-05,0.00309088439708372,-0.003943052548226822,0.0024481481650631934,-0.004558735965771334,0.0024956153803256066,-0.0017966278387229484,0.004105207420638639,0.0009084773240348568,0.002588105110317117,0.0029462518500694163,-0.0033125176434142083,0.0016220941838098267,0.0021586394349050178,0.0026704355741679568,0.00012157182653616955,-0.0030947279153275492
0.004230886744417661,-0.0023565522380904463,0.00034173096743418837,-0.0005852736334364224,0.00338479671194737,-0.0012238773940930257,-0.0013484186149051612,0.002111697021138191,0.00016032772149395487,-0.000534563783166729,0.0012211583479309173,-0.0011194082933913634,0.002258438558010793,-0.0007325321486010902,-0.00010730829821058852,0.0011486828039291759,-0.003019481617427139,-0.0017813360951262583,0.0005164971220882639
0.0007329385345420453,0.0006055864411748146,-0.0045023083341041645,-0.0011456971922469057,-0.0021381461451890384,0.0029918979682024213,0.004410593031189077,-0.0003279021207099778,0.0009596420682051981,-0.0003623274903666324,-0.00017582322490921487,0.0030551491631091504,0.0007413853983833027,0.0023184835202755194,0.0015257936894669745,-0.0018529372979478236,0.0023663146986588135,-0.0021605503276890974,-0.00019474423755906715
0.00251294646247434,0.001608200095924221,-0.001319817751101167,-0.0010391771240234572,-0.004254189107758465,-0.0016000940859235196,0.004086872896188028,-0.0025816382982334707,0.0006929847445089183,-0.0011778578550820003,0.0007701234822512854,-0.002000054946027354,0.0032866343403493573,-0.002950307040180197,-0.00394484878033195,0.003940415575605878,0.001707003826520158,0.004800131534626021,0.003725777736922923
-6.973625282908884e-05,-0.0003533105301064134,0.002995180913789952,0.0008021598086717229,-4.888163966109284e-05,0.0014103601542208748,-0.000922021434037407,-0.0019854598988415725,-0.0006962030275322645,-0.001021448571130799,-0.0031289833470658883,0.004950513860665032,0.0023206572118698214,-8.754284458848961e-05,0.0008609229879772539,0.0006915667259955828,-0.0026557806416112237,-0.0007455013271029815,0.001866992879033814
0.0006906858159447478,-0.004319650460209051,0.0011974632841321347,-0.0009828868780609372,-0.0019514280194536883,-0.0007508391093264413,-7.56852489252229e-05,-0.0015183957069506595,0.004974136775131006,-0.0003426459866564992,-0.003214913992840976,0.0035235137204453018,-0.0009328005800251795,-0.0003101169255707065,-0.00034894339030717037,0.0008686698411004059,0.004650515617781607,0.0015363316789001778,-0.0018340952408770054
0.004375140657685382,0.0003353807713908433,-0.0013404980501088037,-0.003089685852520208,0.0021748379297933432,-0.002628385470540072,0.0022028283032992212,-0.002479641016658903,-0.0021322385586491134,0.002403271940777758,-0.0012594852389423716,0.005624191318230476,-0.002115520845477389,-2.6811979205527472e-05,0.002914993418358903,-0.0018840743020747124,-3.7494534470547285e-05,0.005201938502183082,0.0017660666162986776
0.0028092725318900193,0.0026512216597833534,-0.004607791122060579,0.0007385003121235101,-0.0014286692844993063,-0.0020698657808138335,-0.0011348319113586901,0.00365653016911604,0.0007834799192429448,-0.0030986470075488126,-0.0014928763051581077,0.002982666094920823,0.0015486372671850409,-0.001955593699306747,-0.001309812453946555,0.002538924268233502,-0.0042245911621086535,-0.0005501632965492044,-0.003009390478597441
-0.0004571603967341508,-0.00515513028744146,0.00026332075907403496,0.0013213831695283841,-0.0015697675733811235,0.0001701337838296659,-0.0009418850276003348,0.0008698376009705941,0.0015370126602385543,0.00024065250837258668,-3.0502530253787422e-05,-0.00040610231477115926,0.000974221936843764,0.0015485021292148816,0.0038260730438412615,0.0019473603971032311,-0.002259713577926082,0.00039663476789606963,0.0006262897282474013
0.003151602020596086,0.004110082654199907,-0.003112069467336866,-0.003162672563230992,0.0005572456833297377,-0.00039537140655021124,-0.004089382894719014,-0.003549193967850021,0.0026208080960309177,-0.00032603089169129913,0.00011968135572984258,0.0007420407459042998,0.00012113877328568175,-0.0007589304288240572,0.0011649638843464801,-0.0009635442592815949,-0.002292331869086903,-0.0016749147067796188,-0.0016184018827861732
-0.00029866400622570894,0.002880285712623122,-0.0021981509336693995,-0.0012974753900738712,-0.0008450752688291357,0.0008499995795710367,0.0037053539851014915,-0.0021852941163085595,0.001739766933632797,-0.0016326881947375956,-0.0027807819760968643,-0.0008528625587218585,0.003404894099440335,-0.0003041628521341031,-0.002493474407454052,-0.0021217934394456204,-0.00031344012594369217,0.0010269830230010691,0.00032773736149942505
-0.0014601311662332853,0.004232476377933475,-0.005260944141142518,-0.0010219455354061756,-0.0007426769863247941,0.0008498473947418916,-0.0022967303687802957,-0.00011222695923068461,0.0013090020370894874,-0.00027917216671421167,-0.0002973361927715548,0.006225294100994526,-0.0015509831694556682,0.0034243989378194505,0.000733191645864616,0.0006657018689520009,0.0023226928747249907,0.0008286992294695446,0.001798593425556179
0.0006668552527187843,-0.0007151143170516052,-0.003149654147508934,-0.0019641498206499157,-0.002370246753295343,-0.0006299421809892845,-0.0004777963486087874,-8.46203288174198e-05,0.003714028016174588,-0.001459526070574475,-0.0006123128122292653,0.0014284890793698328,-0.0010704090501652689,0.0022159756892827626,-0.0014534028786067814,0.0018660554996946007,0.001077079247501938,0.0005417896686969652,-0.001151583909631185
0.00125913019715584,0.0010222356160166511,-0.00011091245948435642,0.0010819608366563857,-0.0006533734757386838,-0.0002830696755094337,-0.0019741919149454325,0.0022491666690964865,-0.0020160181190808546,-0.00011147093172836155,0.00242987733280153,0.0010556448204195924,-0.0003897314240762969,-0.0006820663139099792,0.0030838118205594937,-0.0012646058793478632,-0.000793523842375601,0.0033352147396253015,0.0020513682082966677
-0.0014552254208063907,0.0020666763198662996,0.0011806019503107568,-0.0013490398681862215,-0.0013147435994153133,-0.0014662425051628456,-0.0013558876646444754,-0.0027601440241451776,-0.0015695027184950844,0.0034968665157127125,0.0013860623152826814,-0.00018929767992185723,0.0011852653871990604,-0.0032777250656354008,0.0011441517434289292,-0.0008728378990916223,0.0017728784150954377,0.00014852853381221084,-0.002124256084583422
0.0036242539906505733,-0.000496845523872476,-0.000450842558806151,0.0027727733885321566,0.0006545058557346672,-0.002192116998617768,-7.148061245899164e-06,-0.00045726923131051274,-0.0001143358965015197,-0.0015205858872861624,-0.0011866444434388628,-0.0014028427531772559,0.0009072211302649475,0.0014083422838521357,-0.0029773630339607485,-0.0023109114789393904,0.0013295800699362021,0.0018026702356781232,0.0015267248800227887
-0.0019812716356041485,0.00018239700709685608,-0.003269566236941246,4.665209066782943e-05,-0.00013965064384160398,0.0019511238842319025,0.0005528602299788763,1.4622053735697981e-05,0.0009698702929193227,-0.0001923742321696242,0.00039023835354282577,-0.004145478753536345,-0.0009955577851065906,0.002174151309281566,-0.0017261819685283441,0.0010321143315099753,-0.000372869999784472,-0.001179674248369794,-0.0002552585321809935
-0.0014684271137627607,-0.0023528501803195593,0.0009477689353638533,0.0005793542448039415,0.0007499927668596736,0.0022969490575971406,-0.0001483110883593783,0.000886413529349239,0.002934414236804756,0.0018019131411196267,0.0006571824871809475,-3.95031313807316e-05,0.0007367114350107973,0.0015915507044508886,-0.003540799695353045,0.0006740952019044629,0.0017601956267077892,4.704152203554333e-05,6.285580079863867e-05
-0.0012498112046704477,-0.0022265298055062356,0.002064138983815927,-0.003930649544275834,0.0025175976223741816,-0.0008334825062117431,-0.002058272641711969,8.698556758986573e-05,-0.0005181649096073316,-0.0031944850738582177,0.0030256634317886934,-0.0012059238508076219,-0.0028732726846118425,7.464012832119128e-05,0.0013685332581639723,0.0006994054152616656,0.001234719937190709,-0.0018313644477802543,0.0006530156160369276
-0.0020283640027069848,0.0015894607208103634,0.0035315016198185995,-0.0005011343367066309,0.00017306010445256685,0.00285934989095775,0.0009555128628725454,-0.0012593297710952924,0.0006242948188319635,0.0006215887492029231,0.0009983726265977348,-0.0012417726577539133,0.00022075806785567254,-0.00017567235286534394,-0.0014999023122917227,0.0003303879703556243,0.0007232584675796448,0.001846966316516825,0.0002850203361367616
-0.0018632588214840407,-0.002282089228829208,-0.0006706430088001081,-0.0013096974099127657,-0.0023456076112870045,0.00017479226652909497,0.0012194375955759606,0.000364496750538453,0.0019705770583846277,0.0019386664388952547,0.0012581818782355565,0.0017531163966826857,-0.0048069004380278295,0.0015032714392879888,-0.0006411716740572345,0.0034554956606863154,-0.001184761982502392,-0.0026297702080701315,0.001636724321497323
0.00010785426588670966,0.0032622463236585816,0.006394057874060625,-0.00107395808169384,-0.003503002020549304,-0.00029410819790126765,-0.0013336453119225566,0.00045813523972685195,-0.0009033033718239191,0.0002031525399590042,-0.0027048960972235383,-0.0010858012688663744,-0.0024913732467692594,0.0004195160853638261,0.00022004406912121016,-0.003902271053004479,0.0028926455512062734,0.001137160137618228,5.962610532658838e-06
0.0003712301014211398,5.1579693521610876e-05,0.002737493485416987,0.00036350366831896776,0.0010333325196078987,0.000638004525779282,-0.00014267841074362878,-0.0016848372093619319,-0.0008475722561094953,-0.002093308843918826,-9.414841896557416e-05,-0.0006876772305265277,0.0010671016422287398,0.0011229350118957021,0.004015109791601486,0.002626793762285208,-1.7534026941454786e-05,-0.0014320795606845157,0.0016815464853047028
0.00014565396456901695,-0.001430708104584981,-0.0008053291879296379,-0.0022297971766128675,-0.00026821584827693104,-0.00013780001504365655,-0.0015086012698774642,0.0005029065740359042,-0.001445291126464191,0.0008207727951538463,0.002317836139682672,0.00037305479847615384,-0.0029752937551235127,0.0003642680390542973,-0.0020382933133973155,0.0017078508238519846,0.00021303716037238528,0.0025108307432211894,-0.001468144422270367
0.0001449147083129685,0.0016231069228956705,-0.0016026577299302512,0.0019049119915425313,-0.0029234636399489105,0.0003739784796313243,-0.0037319278061042674,0.0007034204353379297,0.0017822210438707374,-0.001562230008181711,-0.00026985481087305385,0.004897025883164783,0.001968491782290496,0.002706217225263341,0.0006236838616158163,-0.0021946489628360266,0.0007547274728017789,0.0023470616109734464,0.0016605662148317952
-0.0023048022516234438,-0.002160817010929584,-0.0016865343850939205,-0.0018356943790492806,5.4325664930763274e-05,-0.0014786044657053433,-0.0023080571129746696,0.0008906472512859984,0.001598209797071808,0.002465883642498723,-0.00020885509583056446,0.001525485230694695,-0.00044064717736574206,0.0010010606374263589,-0.0007473158452553642,-0.0009551123905440191,-0.001852536012275282,0.00026597733954847227,0.003201666177090228
0.0027674225589229286,0.00093184184264932,0.001596788375844775,0.0012885780641894396,-0.0021694275817781506,0.0031604086529262347,0.0008297557670375416,-0.0034275935069401357,-0.00523686975170748,0.0016146587562157974,0.0005028126891869943,-0.001523413508757112,0.00332699368862572,0.001377292964763139,-0.0005875367332453088,0.0008309398837242004,-0.0004547077827011632,0.0003654900887133742,0.00029403491053299035
-0.00233007686393345,-0.002662689773553458,0.0014444575869324776,0.0005211050999116202,-0.0011184408622453544,-0.0042179647461453185,0.0003161113811153975,0.003960694493719587,0.0027139907915168593,0.0009742218098770734,-0.0011628992691377672,-0.0016793313241091601,0.0031577011707241737,-0.004395387411218253,-0.0018333095504990985,0.0006642617488580853,-0.0006909917810333023,-0.0004423974975294235,0.0008488860346616253
-0.001959611120766027,-0.0023557454190533183,-0.0010846777236844954,0.00023878675133193626,-0.0025531940287063593,0.0018757352561642,0.0014660462532716297,0.001443816806296452,0.0007684189276839773,0.0013541706956143275,2.6414271541586964e-05,-0.0015381496026144216,-0.0006033656802124503,0.0011514139440709599,0.0019268130935226574,-0.0017786481443922621,-0.0017324241314353168,-0.0005410024821285933,3.892753329565292e-05
0.002360039647985178,0.0015205689908217742,0.0015041378147791537,0.0006763837346165519,0.0025697265101838306,0.0006198374518875692,-0.0015174097958070613,-0.0024781665183245018,-0.00043402927452915516,-0.000922463171710443,-0.00010666388303741511,-0.002511817266764093,0.002531427383819756,-0.00353552858689047,-0.002052587156200189,-0.0018847158910912285,-0.0020737596828291614,0.0011326644494094,0.0008782864273072669
0.0010998953029004732,0.0011095738548921891,-0.0008828868183921523,-0.0005763938584486735,-0.0018505368531638031,-0.00032587082653931466,0.0012725093071245099,-0.001175493904725191,0.0013996348520078875,-3.629775374137905e-05,-0.0022948944237688083,0.0026648313796769924,0.0013554585821622283,0.0008690712111602258,-0.0003353478580330811,0.0020196276909028544,0.001241969181855268,0.0002980712914380003,0.0027748280571823665
0.001540271682890127,5.8886354176663954e-05,0.0022474727185507245,-0.0013752540441882264,-0.0008922835849985821,0.0009039298142811698,0.0006092876905305416,-0.0034188242808434735,0.005044328865680856,0.0032273100006571555,-0.0007554011584838262,-0.0013223786083105453,-0.0017349931419936141,0.0017435775881223226,0.005451717784077383,0.002037874342099377,0.000665053543137627,-0.0024925571816424436,-0.0022640086032066956
-0.00302860664340708,0.0003280443364918374,0.0010292932642647805,-0.0001852458155822552,-0.001093335392798024,-0.00393213126017989,-2.8176659174038557e-05,-0.00010789011477280224,0.0024394612715783162,-0.0011206100474673542,-0.0012251263283322737,-0.00025546968108509075,0.0012220924282988458,-0.0007445037273187728,0.001640121060965182,-0.0007746937647205481,0.002020348314061727,0.0012916773042471348,0.0013903954827363685
-0.0018962531858682874,-0.003899891343027688,-7.788664288482786e-05,-0.00047124598218990197,0.002967337013542959,-5.80641723064443e-05,0.006184230577043866,0.0005248098817761651,0.002601095315955801,0.0027130615490538242,0.000869076181713788,-0.0028840970920480245,0.0007449198387424256,-0.0023780229610967495,-0.0003569267021162365,-0.002272567875146832,-0.0009365335767331151,0.001069509703438012,-0.004547088711582523
-0.0019666729782790602,0.0010458342518268912,0.0005853551227052578,0.0023917251215714026,0.004856752068340454,-0.0024429909263095047,-0.0005807425716138962,-0.0013741116757325453,-0.0006211003852757026,-0.0005828392537561706,-0.0029937485443879085,0.0021011723477505464,-0.003324595111292483,-0.0025513031285476348,-0.002467808118541686,-0.0018190215151892533,-0.00019128150201753522,-0.0006343292447810562,7.380417055520845e-05
-0.0017457975881366807,-0.0007533143792728906,-0.0020603981421908214,-0.0016033149029130464,-0.0007013476379375411,-0.0015882772762470755,0.0011110212496528635,0.0011700870041898182,-0.0012030412714647473,0.000473686657088,0.0032096063190751555,0.001288799291052857,-0.0015738658420702011,-0.00027408601062843394,-0.001321628685009541,0.0009095845814819343,-0.00219796514841393,-0.0026952660945208946,0.0010907365326247892
0.0018681930122002568,0.0009015662610071376,0.0010530317246562454,0.0004898965859554009,-0.0007038828671471066,-0.000804009384944619,-0.0008343684373001882,-0.000441381337904067,0.00107882635513925,-0.0008063634230750564,0.0015218147061115711,-0.0011949366003070805,-0.0025480705524409046,0.0022794557141471517,0.0004577028170510665,0.0016270933779555178,0.001930763585607849,-0.0011538662374585046,0.0012150639180538993
-4.544943528438176e-05,-0.0012923932280461568,0.0012396312151225846,-0.0015033004069272726,-0.0007005315491259753,-0.0016179358820475787,0.005052497782086128,0.001672579467356391,0.0032431158324158086,0.00032395062183438866,0.0015011594743120189,4.347247247526124e-06,0.00043685551234680516,-0.002779054962774017,-0.0055585763458119546,-0.0001473670132873311,0.001019290012147907,-0.0010688235180930236,-0.0034500714291166258
0.0003448312591320889,-0.00010570084784204582,-0.0015550350857630104,-0.0011348978217397474,-0.0037953931423004546,0.0018478258189674624,0.00024196794685518098,0.004007354628716636,3.2480358300148445e-06,0.0004868769385418481,-0.0011952890759168856,0.0007777513326515058,-4.344682159881126e-05,0.0009155059348982905,0.002603673762884811,-0.0008295492969058154,-0.0007676770206201665,-0.0033814929744358886,0.0033891309207349707
-0.0010520720101536334,0.0001547853878774278,0.003447409055667782,0.0005802477326127946,-0.0007168114872653116,-0.00040957346422283285,0.0025208251201298006,-0.001146371196483841,-0.003794529098584798,-0.0011726097969977833,-0.004014860528866007,0.0018711566657171217,0.0010167210321956532,0.00235970337617658,-0.0013162552345401398,-0.00042620982951987763,-0.0020888678461962614,0.0004648786685417182,0.0015999897688219516
0.0005434184818627393,-0.00044159440602206673,0.00016124230635714928,0.0011799986127945296,0.0003342517356158893,0.00018161182670290948,-0.002729596906373952,-0.0004539229577753944,0.002734050988266687,0.0014145345911017852,-0.0008511756861280025,-0.0019652187954751505,0.003023854802650932,0.0021572928978050455,0.0007613521370253637,0.0005554460307250358,0.0011556156106235656,0.0017565548111567245,-0.0008213959059637607
0.0013440321656604736,0.0026376422288157206,0.0029922370390382197,0.002452464161938511,-0.00242304918223524,0.0040280288192589215,0.0008314019933984727,-0.003349491746839855,0.0039298119207486935,0.0025578435033129393,0.0012797740218163777,0.002027228182486584,-0.0003655529945843726,0.00575905105600956,-0.004316314678755214,0.0005418718052623216,-0.0011112567611728445,0.005345095541898379,0.003691013696128482
-0.002771179273175962,-0.0008384196778684578,-0.003601281665013175,0.0031464748581636615,-0.0006064610585800932,-0.0022771877994889585,0.0004209281031142465,0.003584967227864766,0.0010523573730151913,0.0017768181684282554,-0.0025453449341226835,0.0018281135689459762,-0.004400560528087313,-0.00029630494056754876,-0.004535430495094434,-0.003925189031228815,0.0004912902011103058,0.003889983034099036,-0.0020611894306053033
-0.0002935907834735449,-0.004165048746460712,-0.0015164478579387636,-6.553119947022898e-05,-0.003350093626855023,-0.0010115743033012265,0.0011676527568755925,0.001490285104261461,-0.0018656589254396386,0.0028093672066816272,-0.0035685862658970603,-0.002997887752046503,0.0019214941170410703,0.001343253185857444,-0.0018533668450780626,-0.00273439831913987,0.0018932163857062936,-0.0023707809920228795,-0.0012103761479809346
0.0008256248450389253,0.0004549579600669624,3.784463081915559e-05,-0.002576034346311785,-0.0012667505974511013,0.0010624881970348328,0.0018669450434923877,0.0027474563476574967,0.00031511178289122285,-0.0012076615244754577,-0.001766965197029009,-0.0011194676480656691,-0.00011389405902519772,-0.003772044366075221,-0.001336517112937936,-0.0009735833217000745,-0.0025694212928523224,0.0029445477054234246,-0.000938594304380085
-0.0013673568737363267,0.0013331748445202718,0.0032773128849812416,0.00039395290235553376,0.0014620016901720626,0.0003227547929222059,5.018240748019272e-05,-0.0012593476824410332,-0.002233620515585567,-0.0010576271056319973,-0.002563503353093316,-0.0020804711774562936,-0.00017895187878075476,-0.0024379128453426192,-0.0002969269268820496,-0.000509857414390009,-0.0009491666990100818,-0.0005595972846937587,-0.0011314129128872901
0.0017956687267097387,-0.001164054980090862,-0.0012654502861438313,-0.0007536394336678114,0.001162374451817021,0.002522066186974057,0.001973773726679653,0.0005691185317824025,0.0014799030610159847,0.0017252715039021722,-0.006242010843744767,0.0026328976982798054,-0.0020825115357471936,0.0016559629356878202,0.0002847860636546488,-0.0035147396700454395,-0.00015971840295753465,0.001301412855149792,-0.0013967567061806453
