7.782148101349788e-05,-0.0010797684494293414,0.002101135197755051,-0.0014805259513515597,-0.00032687319505665853,-0.001089147001486495,0.0004083305389993844,-0.00019987581165372396,-0.0021514013906297467,-0.0006631667999433293,0.10828349014863083,-6.852642066769291e-05,0.002512714958215635,0.0026140882573793714,0.0016790384886038933,-0.00013687412737436615,0.0007006257382786487,0.0008414501626134295,-0.0011599530159907517
-0.002327189774312385,0.0006733784768688068,-0.0018771258769716384,0.002984194818037641,-0.0009802051593096686,-0.0012794516929261048,-0.0010236132313641252,-0.0005454394817871916,0.0018660779016715257,0.0001921725127871606,0.058139064566424474,-0.0036648531875690944,-0.0008743480480675735,0.003771552426570794,-0.0015405732215260075,0.0012288515993219794,9.037728412219798e-06,-0.0018831626638133854,-0.002481007275519503
0.00103077791649607,-0.0018278317942690137,0.0013488585817696918,-0.0024365671297676902,0.0003897249293300301,0.0015759090067906827,0.0004282431227637409,-0.004353016813938589,0.0022209010281983707,0.0016605337380686158,-0.07990331539689295,-0.0003943589280123758,-0.002119451718912409,0.0024131721820681877,0.0034616328835654023,0.0008910427405157852,-0.0012339591977003142,-0.0011682500674258269,-0.0010974019056368266
9.918770377779988e-06,-0.0030037697095049907,-6.236431570629379e-05,0.002438468164141707,0.0010917188891469032,-0.0034286051585234963,-0.00209233161805255,-0.0014589149330304257,0.003552969924253138,-0.0018408864958730123,0.027776168766650417,0.0013483113155086629,0.0007903363164519222,-0.00031097513426042684,-0.0003148052021209295,0.0010864956125200033,-0.0007318795813086577,0.0010400845976151246,0.0042290579836077495
0.00031439441420585957,-0.003907164886165694,-0.0015048445297399038,-0.004160805742340431,0.00482057040922397,0.00021370460348450377,0.003142571518826315,0.0009677836351936979,0.003548040092034293,1.570745724200758e-05,0.04064645540150592,0.0019007565905089115,-0.0021048460311325007,0.0015894028941850487,0.0026183006349692556,-0.0013727067217569212,-0.0014521493723556953,-0.00017443691355896904,-0.001193582021645514
-7.196799120349019e-05,-0.0002598314259337947,0.0004808193244998372,0.004576361030762088,0.001906602612257069,0.0020938479562975787,0.0006839319157196518,-7.898249532686016e-05,0.0012283382460481756,-0.0007707965993371074,-0.14227575741119236,0.0004566609379914211,-0.0025019638255898697,-0.001853023783872788,0.0031701376966883454,-0.0010320884845420558,0.0007076054976963021,-0.002789506621256003,-0.001382616527012312
0.004312980647073496,0.0011849856126511374,0.0008106699601939973,-0.003404160967567586,0.00023242620589105143,-0.001978254576376581,-0.0018752664873075578,-0.001074946495523744,-0.0008627582331726734,0.001632080952572694,-0.053372086123768,-0.0016603148892359947,0.0023603623931521375,-0.0008146970426256653,-0.0011576485431532548,0.0035823963189144043,-0.00022894014592048868,0.0018770843205963572,0.0013865789288200318
-0.00034864446591278026,0.0018797277540202899,-0.0022643861431837927,0.0021450650576718107,0.000593211852295116,0.00045951951719731707,0.00048051410864332847,0.0022325862055863864,0.0033256598051698157,-0.0008123570366944309,-0.09865714580682249,0.0020236707297023515,0.001562551209469986,0.0004274955535559927,-0.0005099682786147769,-0.0009397694811377355,0.002738151701465826,-0.0014613785483398878,-1.5268906456915569e-06
-0.002291224809743333,0.0007571585623598197,0.0006447144250036473,-0.0031812222725515027,-0.0004440416865903387,-9.71291449308776e-05,0.0003941301206915401,0.003966266802484743,-0.0012104259076723318,0.00031818765085770806,0.03161993582306089,0.000467216460785133,0.002201192334748626,0.0025084837270364035,0.0011756225454092478,0.0005649065992749354,-0.000958841178522847,-0.002726355936940272,-0.0015695669425100562
0.0003349797856335121,-0.0020177411903884957,0.0007746864351458571,-0.000412181807004673,0.002505998386327428,-0.0009574018206831376,-0.00023306352095967754,0.00014407110921549226,0.0003079510250818142,0.0002873076584276643,0.05915909167334534,0.0037170245390637643,0.0006366156168571327,-0.0004131735162928816,0.0006175427962244725,-0.0027351134289009776,0.0011262618865870823,0.0011865683976598346,0.0016646904382740459
0.0004000506873125156,-0.00041474662708033456,-0.0007857913682744688,0.0023673007477020384,-0.0007982935326095211,0.0007558562496603293,0.0014051293593773473,-0.000823983153017208,0.002759495624681597,-0.0013282659037313009,0.03313103578437419,0.000896164281312199,-0.0004436779882786061,0.000852498153404001,0.0013604843699511206,-0.0007854464988127494,0.002842803439277833,9.990066242528082e-05,-0.001795898638247798
0.004443054098002068,0.00035920385268460575,0.0010815027884856967,0.0031532418740220338,0.00035306639813282507,-0.0015481076202263021,-0.003914269791921891,-0.0009239371996613055,0.0008728259452631411,0.00021537322433111262,-0.04217725038137059,0.0017628073811925824,0.0006694016423623083,-0.0003708556884967365,-0.0005272553460002011,-0.0021938002069188146,0.0008526534860344534,-0.002700833076671582,0.0002418936423497616
-0.00354698444735394,-0.004940881955930225,0.006869268029933449,-0.005246538723932389,-0.0018339249452507382,0.0010710039508312263,-0.002240775319278345,-0.0001501227845789943,0.0013144882633986269,-0.002406317271676361,-0.131745076355498,0.0006887044936851229,0.001580130129139913,0.0006469637108762954,-0.00015101371837345921,-0.0012608011123621781,-0.0014655930653038477,0.0006490966896167198,-4.3284389735399045e-05
-0.0013477344965953477,-0.004055725107237646,-4.698900890820195e-06,-0.0015622786009269068,0.001674624145356108,-0.0018065504332706445,-0.0017514421846700123,-0.0029047033295341628,0.00029789143452398114,-0.0006898928504780778,-0.050359576238665354,-0.0024689157830795026,-0.00222506823945989,-0.0012454522334142063,0.0014931767947292437,-0.001763233342978044,0.0006530919016302835,-0.003542131437401316,0.0016529971145225434
-0.002293851975877577,-0.00017021188909665595,0.0017321695011102655,-0.00019990630825593574,0.0015152193120158027,-0.0017575499278552691,0.0017419327576010985,-0.003234042585809378,0.0002507148425442063,0.0013805525620302851,0.10303401901560134,-0.000269640325293348,-0.0029830571521411173,0.0002367012040453432,-0.0003119674464444802,-5.118346834010237e-05,0.0023724855434996413,-0.0014244908498074942,-0.0032895028510219566
0.005467697180995178,-0.0006149415009464249,-0.0010741826414354429,-0.002322446517219582,-0.0009634845350477896,-0.0024554712323608553,-0.0019336417149634216,-0.002471381040667692,-0.0009313764232983117,0.0030574918705760586,-0.058383432482144164,-0.004074541835514983,0.0002515910007917641,-0.00012038710785770489,-0.0024164718575392773,-0.002715449138252839,-0.0026521331740785607,0.0014824847141965843,0.0009466548894966708
-0.000883068011802217,-0.00017449545199564926,-0.0015887344915875286,-0.00021142094332824915,-0.0015320074614763206,0.0008365680504516489,-0.0020384659742750098,-0.0003805482004740381,-0.0018832120492834217,-0.001507121818509591,0.154599076789831,0.002860699451072466,-0.00012906980137393522,-0.003163655523729055,0.0014185464073775507,-0.0019838416736900053,0.0022322370911248128,-0.0016288080476499585,-0.001104560300786512
-0.0012942399938116263,-0.0015547191412332898,0.0009331419704242558,-0.003934489009931183,-0.00021139915236489127,0.0013498893648909124,-0.0014508158203173295,0.0011500552056294654,-0.0003165193542294628,0.0013289334316493792,0.025287628028604247,0.0014164184771268786,-0.002477222818512963,-0.0016457137226794914,-0.0006023060778271829,-0.0007923919421939523,-0.0016850699053852273,0.00474055922121795,0.0012728808847188152
0.0030942711852193607,-0.0005915314739319671,0.00029861670691023724,0.00272948238191074,-0.0019536828932520366,0.00027301407493775514,0.0008327527518100092,-0.00018811798870784228,0.0012175272421874517,-0.0013088900944072078,0.10579310348977411,0.0018652821833560025,0.0012234710885541927,-0.00016154790893196415,0.002723728381214052,0.0019794619386151817,-5.9951121465455846e-05,6.74148873790192e-05,-0.0006361702817816538
0.00011466632582298184,0.00246978533670768,0.0010721634110448938,0.0010302849613061306,0.002323486977552579,-0.0007678128456131735,-0.0013469008718741402,-3.553933231872867e-06,0.005840243276091207,0.0008879216705629625,0.051827651457845895,-0.0006999839962812002,-0.002723513626777832,-0.0004357891569398519,0.0009850364386116014,-0.0010454615783754063,-0.0008198882167297365,0.001891523545984116,-0.0026967310993739157
-0.0007495076827888827,0.0024053036518693408,0.0006971263806380478,0.00408317634254184,0.0015926795159681203,0.0032059637836217183,0.0006019047810694567,-0.0005115130086419219,0.0021056108708156582,-0.000789688324684732,0.19374880497188066,-0.0006287615918880192,-0.0012440806093034504,0.00044128171464255625,-0.002427935276189772,0.0005292842128186488,-0.0018622312953060593,-0.00335090380471128,-0.000711154919202363
-0.0010163882128701534,-0.0017378820156581769,0.0004216371396842277,-0.001535110687908644,0.0021242716108252585,-0.00016730486564255382,0.00246115765084127,-0.0005883311126095,-0.0019507528997443893,-0.0016934089835844994,0.028274555758180123,0.00012594562601972515,-0.0019032547236059723,0.0020356233766507955,0.00024668169419545655,-0.0007415569977829309,-0.0022351108096774243,-0.0021195130903385244,-0.0005274240088115316
-0.0018375897120766406,0.0011448948071017366,-0.0006051004321948587,0.0013845297075390868,0.0013602273598317337,-0.0013853219023534369,-0.0010047977479432967,0.0006589328684498411,-2.9398700476492923e-05,-0.002773337114926626,-0.09358928135530492,0.0015676383386939356,-0.0022460320858751865,0.001883855982240331,0.0024052895623739704,0.00027277929696908855,-7.935993388209535e-05,-0.0004260095884746143,-0.0018110429707325567
0.004421027646902797,0.0007149057696764783,0.0015953259581352392,-0.0015937439202742415,-0.001770010480581282,0.001752130507113342,0.0024783867781716902,-0.005610823932658551,-0.001926304028537643,0.004165642607943726,-0.012037110414193707,-0.0005711314722462186,0.0024051326758723307,-0.0015753435377981531,0.0017775340150864582,-0.001514550068612635,-0.002264870848919114,0.0028864233079101695,0.0017111538145165718
-0.0014989511407538416,0.0012127032261188954,-0.0008276346642809978,-0.001841380340760188,-0.0001591914903266972,-0.002585999668306843,-0.0009399561687887306,0.0003887208830386246,-0.0006714061821876658,0.0013756629557239487,-0.25213676582377165,0.0011959960395858055,0.0035296143951050883,0.0011648184147669547,0.0006518276785913149,0.000771850146551931,-0.0024227220594113903,-0.003280361058937388,-0.001237812209655148
0.0005779161219430281,-0.000777768933407688,-0.00013134039610943968,-0.0004568037164516165,-0.0033744072119655335,-0.0013244818022544406,-0.0010893843170892506,0.001242364689767672,-0.001529745056494354,0.0011338252415840347,0.03197396342011215,-0.001037730028620265,0.0014499140959382932,-4.021897139063811e-05,-9.169986949625747e-05,-0.002512512150657119,0.00040194043397569516,0.0010092782485132846,0.0013711609347752543
0.003015718418742829,0.002318321434221373,0.0028616679967786015,-0.0008999263447005741,-0.0021101770221745746,-0.0015458399030922778,-0.0008720695691323485,-0.0007267788146892399,0.0024553760355172346,0.004050466472095597,-0.07052867449914162,-0.0006564762195717804,-0.0019457394585837401,0.00014386920428715983,-0.0008970149268166917,0.000710269320683535,-0.0009413372044577427,-0.0018926983681228544,0.002263396520614815
0.0025004541014807687,-0.00042518636196314373,-0.0014295718953704056,0.0007959479127198196,0.0032920650297017227,0.0007848360584098383,0.00010930819768181073,0.0027336837601490745,-0.0007930700957545815,-0.0023996894979111186,-0.09585445301950173,0.0010034166804379688,0.0008827244203992086,-0.002120619981880122,0.0012968750131888646,-0.002536838112556172,0.0005325366383951577,-0.001962230849194899,-0.00048443403783607044
-0.003720811835241028,-0.002485298519617017,-0.0016876359355976391,0.00042858954338934166,-0.0005460967598695841,0.003974148966673907,-0.0007437110831924736,0.0014323697238079157,-0.00032970686172023085,-0.0010459338727229624,-0.09260026586917022,0.0021301771918343106,-0.001364258414130632,0.00021599741992363666,-0.0007870046115578523,-0.002945058094804341,0.0015672330221099668,-0.0014520465402218011,-0.0040473184306487435
0.00012147646292775681,-0.0011696744642301418,0.0005194368444916231,0.00015886621039872215,0.00211947791758888,-0.0008597659484707816,-0.0001558422689882134,-0.0019597179722384435,-0.0036608458633512544,-0.0018947245911109794,-0.14477349028236086,0.0018981604242916995,-0.00047303350026327247,-0.001632965873539156,0.002366510352276884,-0.004066894396472383,0.001306596480179443,0.0003563339918692618,-0.0008038999771513806
0.003444703360889382,-0.0012494994163913795,0.0008579495975571982,0.0012955602845823963,-0.0013515368027993083,-0.0004191425766051716,0.002257000237589185,-0.0005962606667103916,0.002906316311972689,-0.0007020098021608704,0.083734420826932,-0.002895054680122463,-0.00042100283173059127,0.0027495970346174637,0.0012461890022243088,-0.0009907374759671747,0.0009340989298747847,-0.0024115478500435343,-0.0005429268553678017
0.0007655124387820571,0.00028487618079745886,0.0012502209944423993,-0.0009842177078623897,0.0011776516543695445,0.001943504486754534,0.004256010221401606,-0.00024563979931955393,0.0025112642337050675,-0.0023652121799035363,-0.020777929344229607,-0.0008297131578196904,-0.0004806446182991029,-0.0007220573275858605,-0.000264581579625608,0.0014943980175424676,-0.001264191204682123,0.00019418288388893857,0.002187170927705861
0.0018243314170857119,0.0006728017244447458,0.00024016682522212988,-0.00200503468269136,0.001119847744521242,-0.0007931313761852868,-0.002089852807598241,-0.0017578149993010134,-0.0008311879039884543,0.0010169445066324108,-0.09705370696202895,-0.00361900385525328,0.0031951488000041143,-0.0008322010681379697,0.00015165790706292203,-0.001330068217683179,-0.001182256236471328,-0.002472612656647884,0.0025664665693141023
-0.00048661849800113823,-0.0008793778695749386,0.0005612629220521169,0.00038386370308999445,-0.0009427800015297319,0.0024427006426451588,-0.004971210112658983,0.00013469750905300654,-0.00266741848259982,0.0004869012127553018,-0.08281045230959833,-0.004175115370712332,0.002262337032614293,-0.0009254874421771553,-0.001042445075832208,-0.002326106066612991,-0.0015914402181928101,-0.00032211748335487725,-0.003704612496064931
-0.003975216354100536,-0.0002826950734434667,0.0028570037503107197,-0.0005320637627878122,0.0015344973333157065,0.0002325138829305008,-0.0013452043703099886,-0.000526790179282455,-0.001954258916131415,-1.2224708753931689e-05,-0.11200229905691127,0.0012403913574280563,0.0012264170432959532,-0.0005793502424000485,-0.0020331998683943355,0.0007125150586288698,0.0008297012874159884,0.0011525336140200172,8.120215937938512e-05
-0.0004264785990889047,0.00020038420643094562,0.001526365453094828,0.0007787870423597448,-0.0019824951839251775,0.003175522366312335,-0.0006887267815254427,-0.0030492081630324533,-0.0012182009722795724,0.004349741983194819,0.10634855281307652,-0.0028518856781612153,-0.00011288314156405762,-0.0007165180749207133,0.004222022142981559,0.0004218677753431554,0.00045599335840857416,0.000720099859454391,-0.0015085163289064074
0.003819871685726225,-0.0008427165483453255,0.0018800931036181785,0.001017797332893785,0.002347332990529081,0.0022595489557883036,0.0025886914979130963,0.0001971899909187607,-0.0012188453110786508,-0.0009940211811498307,0.17599712776509197,0.0001259624273811117,-0.0004929759504022944,-0.003166212548147354,0.0017549834912098372,0.0016172279635420805,0.0010223480768009009,-0.0010089221426964503,-0.0007095630869485708
0.00044178877163808766,0.00013623001490371814,-0.00039790775950788266,-0.001825384440922271,-0.0028047870251671227,0.002673099318988689,0.0007679223529458884,-0.0018949490077640521,0.003793644044974254,0.0017978654332532452,-0.13739856004923232,0.00040951324670392906,-0.0004218987357311633,-0.00041663763252682495,0.0021496984476826147,0.0019540284695325648,0.001000245760652123,-0.0014647769558488685,0.0020177472661842325
0.00031126747980188773,-0.0043340509989369756,0.00038745643038988893,-0.0002563933607975149,-0.00020094588117343753,0.0026631623730822796,-0.002102591553961478,0.003462542468324062,-0.0009959725183236407,-0.003064527842272895,-0.2528825951925059,-0.0015548642278024498,0.0019041055509237356,0.001990318666625969,0.001787100970276669,-0.0018726297267776294,-0.00039933786377972715,0.0018881129454367677,0.0021669718133827537
0.0008886868529606792,-0.00040793352853992843,0.0007587111043367142,-0.004578250914967146,-0.0004064386600057189,0.001480432741213256,-0.0014736430513816968,-0.0015900283632712404,-0.0029614332435874326,-0.0026751664260734357,-0.26960491530782443,0.002976030446047827,0.0009451836970419243,-0.0002527700949818619,-0.0004987562491011864,0.0008919134116871848,0.0002967360548973194,-0.0017055082316078933,0.0013900145414040407
-0.0020126624613062286,-0.0032084941035475344,-0.0008815384250914108,-0.002496587263191942,-0.0027775353091753292,0.0018615395807350962,-0.0021141071702374314,0.0020520105995939213,-0.0010639134331235632,-0.0024150362279137913,0.05626564075968861,7.790908804119204e-05,0.00045869868662687445,0.00019545379852322988,-0.00027767150383381436,0.006077102997159455,0.0046981188543477395,0.0006583901412764893,0.004670349865429475
-0.0025489866690161624,-2.4428379663093858e-05,-0.0006733668066822894,0.00045736078371058305,-0.0005581402191809689,0.0024960965232605626,-0.0016018535975594566,0.00020290257717352393,0.00042216025053513196,0.0019194016743499362,0.06498098619285596,0.0015003664871320705,-0.0014697324615813967,-0.0008608944584254455,-1.382251360250348e-06,0.0017470279506699555,-0.0037249500758133537,-0.0014024592763820678,-0.001109359215108338
0.0019149896681543027,-0.00034646261080798884,0.0006174365094048661,0.0013555704455267509,-0.0004909161392765657,0.00217676590051415,-0.0011094277377125758,-0.00034656795516940184,0.0008500897382944251,0.0011025799847255342,0.03782054486315703,-0.0010393016019628006,-0.0016027353052054678,0.00423365850971886,-0.00208609382093388,-0.0015209405752949618,-0.0002386148202810942,0.0009166049262796298,0.002108012208741992
0.000672367801960805,-0.0024554949074966407,0.0015195142823314215,0.0010392172733158895,5.5841843416317e-05,-0.0004987894605528752,0.0008780200601414028,0.004073315152011069,-0.0013993737670930735,-0.002800350413355774,0.04930456724079389,0.003473128691971348,-0.00011828443981633131,5.716075322652124e-05,-0.0013588903822911629,-0.0007308914260694389,-0.0023010803246194906,-0.0005734874982853879,0.0002924736737375052
0.0021897469382346083,-0.0018687770155222379,-0.001165580276802544,-0.0006557865840806851,-0.0006097048957489568,0.0006758116348817365,-0.0012855290847161654,-0.001908925843358036,0.0005743363214073535,-0.0012230879505440836,0.05085935216067151,0.00016596142640940912,-0.0006026151917871051,-0.0005486986055210141,-0.0008017971162805161,-0.003055844537635198,0.0032773590267201353,-0.00028701018633177247,0.0009841051212088163
0.00040876567627963397,0.001905112399583849,0.0025665458870984016,-0.0032238974842190094,0.0007124195747795048,0.00018215011344802225,-0.0010882491792766913,0.0005309885934673361,0.0009964943868676951,-0.0012841634571698194,-0.19148935196415484,0.0006159953418941114,-0.003299705359916135,0.00037318448846013387,0.00021588057629861414,0.00034868942470346246,-0.0005304015847772811,0.00117789857153409,-0.0033920989370813063
-0.00022914739380705776,-0.0038084859912992353,-0.0020406733254685013,-0.0019796168824297907,-0.00032506893732758824,0.0022282420947675077,-0.0004859130459842197,-0.00339314904102544,0.0004351615369079615,-3.0146310811876256e-05,-0.10941131249252434,-0.00021665853083853746,-0.0012446461821863765,0.001363768982959849,0.003831275700709503,-0.003094280919433674,-0.0032677790048139953,0.00011926287851602873,0.00013312011673693774
-0.001587729990225288,0.0016841967002144981,-0.001534327266534435,0.0025819240114612007,-0.0025751888053290326,0.0024219014367652058,-0.0014919999611681326,-0.0006620049129572635,0.0015476246914799222,0.0003354523183483674,-0.0037410330132404287,0.0010658558291536916,-0.00031616385089852064,-0.001818563757340157,0.002223864955788932,0.0007768988118174656,-0.0003339712809116496,-0.0012849148546051202,0.00023315533948952232
0.0027198223185100666,0.003932599517027223,-0.0013675492621374504,0.0015298417061755114,-0.0029027841314015796,-0.0004356409185415857,-0.00046597803478232944,0.0013445403427958008,0.0023116070411962385,0.0009460256517622776,-0.06422453589586574,-0.00018012433156869355,0.0041398408323965455,0.0015856654891892614,-0.0038152098921809064,-0.002539738064173749,-0.003342039488325985,-0.001410744474221055,0.0014610868102401392
0.0014040072904395516,-0.0018929631083350145,-0.002241485632476395,-0.0017426331602221588,0.0026835220492589834,-0.00036319038467138475,0.004379026346257585,-0.0023247364534359546,-0.00021147482924352873,-0.0011566757100931865,0.0073225171793402394,-8.811956153713844e-05,0.0018438804607876556,-0.002549249779188529,0.0006479103628181927,0.0012500242898074191,-0.0015185477994406071,0.0007049556269143436,-0.003257673515230014
1.4635738375130748e-05,-0.0014134577857225937,0.0011116191820976428,-0.0030275583401028748,-0.0008833015422614803,-0.0035703045236547687,0.00036840849751086023,-6.718947622436568e-05,-0.00018887855756712243,-0.001596372246435056,0.02632670863184647,-0.0014006092030980656,0.0008808929847859972,0.0010710135620308982,0.0010026037268620921,-0.000169199884566873,0.005133025608308853,0.0021453574346595623,-0.0024113679460294
-0.0023173218587347025,-0.0025350095879453326,-8.803786613990575e-06,-0.002165720292775248,0.0019433878276028083,0.0015232822635944125,0.0005564062112058748,-0.00019123538516235632,0.00031757136169325017,0.00316032339130578,0.05783293105333431,-0.003840457707094418,-0.0010730719913612237,-0.00023051347260395123,0.0033613738815656403,-0.0015448981776480025,0.0001478223057814295,0.0013375908092225224,0.0005341636235122804
-0.004948058023988631,-0.0025771153028835694,8.124633283626461e-05,-0.0024232835193472623,0.00047747549245738535,-7.571270804813233e-05,0.001003078250191625,-0.0037310353481657312,-0.000491202890810925,0.00215231561764905,0.11546569365490997,-0.00039042347411626517,-0.0011563084610004184,-0.001900110559576037,0.0008885365910123082,-0.00026003369539193767,-0.00010091863233490666,-0.002628643606337378,-0.00027867069585939605
0.00012487549134886731,0.0012596347948443942,-0.0018985126933335444,-0.0032610869531768394,-0.000267864701402132,-0.0024197725355208557,-0.0007981685855867227,-0.00181904687203428,-0.0020865136456702784,0.0010487051234347076,-0.023225601835030755,0.00032959769061429356,0.0006130257422187069,-0.0018290582950139086,0.0015916420723480554,-0.004962126521354111,-0.0008306623457511546,-0.0026431489936382573,-0.0013418625341965313
0.0025781422309238515,0.0009063248516757761,0.000515680900142273,-0.0010162678814763146,0.0021647749962121305,-0.0023756529643546116,0.00041250525019032914,0.0005486179555853381,0.004176907405947898,0.00020816649853666028,-0.1631602916353048,0.00017876662276513332,-0.0006082592605069208,0.0015248816071878617,0.00039616578666414455,0.0007979816510551016,0.00174383484089427,-0.003941086729640412,-0.0007558092944320103
0.005157967401542063,-0.002529719473522757,-0.0016398526865098228,-0.00292304265109391,0.00026005769708527075,0.0007419170248461851,-0.0008328603995213506,0.0006474342108263562,0.0004122592499476843,0.003937970083758481,-0.2958831402995778,0.002068392037682902,-0.0030656995415905175,0.00027422420680512743,-0.002144114850961644,-0.0008654746078730574,0.0007180291058756387,-0.002349221247542943,-0.001874102680625958
0.001172265821921235,0.003975045091788817,-0.0026664734045249478,0.00014498943845981678,-0.0007640802672922347,0.0003554106647916957,-0.00042604261030419467,-0.00019273320554131528,0.0004793994339221925,0.0025038939570371753,0.04288140508185276,0.0003805405783176977,0.0010811335603053524,0.0030875526947383926,-0.0006153004504733655,-0.00615206017050492,0.0005672668476211024,-0.00023695822021734103,0.0008292624296366324
-0.0027965314983156506,-0.000289056889099807,-0.001470037942491677,0.0029527158503795843,0.00040510486432725825,-0.003471539263604047,0.0003324616954610905,0.0033046869383947203,-0.0012634986574280816,-0.0023518563774688585,-0.03396529518617243,0.0016904060936564,0.0007805174268801222,0.0006715700359830992,0.002262740491757714,-0.0003091518990177274,-0.0020928286360882443,0.00016062331552298134,-0.0006170476552097185
0.0009516861362538364,-0.0013798259442547567,-0.0022837951113144975,0.0003564907705422464,-0.003387828641383751,-0.0006093336208354499,-0.003236588716672298,0.002296985057488788,-0.0005214462082229644,0.0018191952049313237,0.056031947365415245,0.00030809621922319797,-0.0007275649450870147,-0.0034138095705187567,0.002907036571914199,-0.0013202935650512204,-0.001575889516527636,-0.002419303043667043,-7.496470735321774e-05
0.0001916831835351625,0.0013958432714745173,-0.0015157164227788318,-0.00018718296706923576,-0.0018244286553429478,-0.0021611318683606414,-0.0007600182230748482,-0.00019762548577872713,0.0008265183572305152,0.0012519302448144537,0.17373781108172145,0.001023478230566032,0.0022155805053834785,-0.00018509950052584715,-0.004362590093835978,-0.0010100086212178367,0.0008899574837585882,0.0029477400859099466,0.0011742706997796097
-0.002429164932176791,0.001297643015748075,0.005085886067731271,-0.0013378550059828477,-0.0009179600111330733,0.0037181195007828572,-0.0023183047713731544,-0.0010291646373179301,-0.0018754779123136213,-0.001939436779852937,-0.0789969993231992,-0.0006322424320162037,0.00165758764903615,-0.0021213924012077894,0.0010409913680432164,0.0018158726982256763,-0.0018363244661078906,-0.0016927631664601294,-0.000203635942536481
-0.0018909415105178055,-0.0028061413782593794,-0.0031634333338221294,0.0013744461752965226,0.0005695869526455681,-0.001567082399411751,0.0007116390736713438,0.000957037543909117,-0.00016462552983440547,-0.0004223071306851692,0.14441555375940743,-0.0006891155601114736,-0.003300234009236943,-0.00028660245047109397,0.0008523638065078691,-0.003673584247342506,0.0006878962372704704,-0.0012714742206718325,-0.001476170371223261
-0.0018770325712040997,-0.005287086239939402,0.0013934528332246862,-0.004213657721302397,0.0021335713883545776,0.002351550355414563,-0.00031468577303936086,-0.001618350300023069,0.0014639108002876351,-0.0021349176899000902,0.07999223213884493,0.0001295254538221689,-0.0020021464198594933,0.00020931165859933937,-0.0023344028797753903,-0.004059740699337621,-0.0007711299809826317,-0.002202863130624576,-0.0016347510379680695
0.00418367394778125,0.00430631747423614,-0.001314752739097257,0.0007924957602004896,-0.0041706454553764845,-0.0009473552878150938,0.003164451676643021,0.0017856309199084115,-0.002195188750602984,7.726261583203159e-05,-0.14695821639802034,-0.00099630990707242,-0.0038257845598583928,-0.0018046643441930414,0.0027908147234336923,0.0031338673825710966,0.002263350650277402,-0.003233952718914602,-0.0037595592894607583
0.000500945107651685,0.0023424636518404587,0.0006474331059381943,8.338023444341671e-05,0.0005790096038438668,0.0007267639800211283,0.0001522628753596886,0.0016923192858972042,0.0021616420249245963,0.0006103081448368733,-0.12941046581332477,0.003843104218099615,0.0024986718198956393,-0.002060859263858438,0.002060983177594365,-0.001568018732883991,0.0026431145221829573,0.001049012977342684,-0.0003937851520610788
0.00026616524911820486,-0.002725472187440435,-0.001383987899927497,-0.00012557479403781577,0.0010018932934667023,9.91237634848207e-05,-6.524692318628673e-05,0.001905218917271487,0.0015056409458641855,0.0007288776388380596,0.0771745369175759,-1.5334052600251045e-05,0.0002933306752451247,0.0017253012187903292,-0.002451076937170585,0.0006194499910227347,0.0031021924882012252,-0.0018527078740927423,-0.002138604270431862
-0.0015603461703235775,0.0001342090066496488,0.001814160018756602,-0.004749378362853552,-0.0021006585106249508,0.0031140203888618714,0.0025657704350265016,-0.003756300959229788,-0.0011209251788601479,-0.003682288813462887,-0.00023002345754718126,0.0003647599100949906,-0.0013972724202481195,0.004232363598319776,0.0003649506108241945,0.0012106163291438934,-0.004463039979171995,-0.0019638797405394895,-0.0014969310208110549
-0.0011510265880695328,0.002361009863681247,-0.0015053620373664076,-0.0023358900453042263,-0.0004119786944340611,0.0009793997692892212,0.0011043037951535004,-0.0005423453428290861,0.003742461799263429,0.002534472846732639,0.016270067511250604,-0.0008585080716826163,-0.0005745567207063188,0.0013429343622500744,-0.0006544001370091617,-0.00210630289415646,0.001690067765280746,0.002756647632489098,-0.0011678972814682476
6.29046575841929e-05,0.00036200620403530206,-0.00032571421319316235,0.000960649899993424,3.688629732201857e-05,-0.003244068763886219,0.0011511414079547117,-0.002785449912402996,0.00038491851601655017,-0.0015651239324055795,0.16484230887804152,0.0021389482136086576,-0.0009449775217180895,0.0034735758914960957,0.0015116119991367995,-0.0005245544172887497,-0.0007897222601826602,0.000932874211884567,-0.0009736324290001308
0.0009728877367727272,0.001694726868268776,0.0006161519322363853,-0.0012928826333002941,0.0016141480476103544,-0.00033676137674927515,0.0002767837064482264,-0.0007538418718026454,-0.002451095999739151,-0.0014038156101069512,-0.2685984741087759,-0.0005641395559219875,-0.00014778648080276954,0.0028179884182026535,0.0006418218031359799,0.0005597556635790209,-0.002596843105266899,-0.0008312165018437049,0.00216069875259043
0.0011202698268083123,-0.0016846710063016322,-0.0003261788083198558,-0.0015965288162759713,-0.0006783960418831246,-0.0011169573526634378,9.585223365741331e-05,-0.000779476274012673,-0.0015019695984701644,-0.0015532047961303581,0.09723043936381953,0.001228434099669001,-0.0021170402657302817,-0.0009916990477810911,-0.004837690788718509,0.0010831558101389003,-0.005244985775238938,0.004419620131893677,0.00023312296926362327
7.355443071535858e-05,-0.0019992633683271668,-0.0009657010412426266,0.0015650748143963443,-0.0002308327564665926,-0.0022797566759146723,0.0008289632430776025,-0.00022962052544291483,0.002086985532635664,-0.00237816157597789,-0.08820595232732908,0.0004073579750837203,-0.0020508041211729842,0.0031570290629583434,0.0009984996285503029,0.0005244639431022901,0.004150942088786771,-0.000588879108586678,0.00011624392214588842
0.0018838442912145364,0.0016358201962465803,0.0004692226724152313,0.0008777847114808891,-0.0035116071943954467,0.0016115848188761857,0.001968294722347965,-0.0015181321570508846,-0.0016220486979739393,0.0026293403399204637,0.0166706620154366,-0.002362396263147474,0.0013918419132078357,-0.0006784661650359973,-0.0015729661748938649,-0.002888576990867394,0.00031771869672221506,-0.0002934968789159882,-0.00030635147157415777
0.0037744418418743236,0.0006744708881558366,-0.002498119366633757,-0.002752762662787263,-2.5861852601615297e-05,-0.0007738737960379474,0.0013955021942164982,0.0003690282139501761,0.0012036788107806463,-0.0014219322067296873,0.01318695132345682,0.0021088876221733595,0.0008354503654162611,0.0013094573914275022,0.000827271664642365,0.0032679895548710204,-0.000291878806082667,-0.0015416821710893347,0.0015839696416043796
0.0018880320508291402,0.0004419441589239289,-0.0052493873736089965,0.0010153532289853809,0.0016969694579262837,0.0005596437156726756,0.0003306055770071524,0.0002548247560736421,0.0016667263819348031,0.0009660689366746174,0.002148617920174974,0.0016900446531558965,0.002657507444617498,0.0005864557321372581,-0.0012708237576520595,0.0010731944763083868,-0.0008781098278176943,0.0034247415002610997,0.001817261246132964
0.0018846889204909903,-0.0030504298602129754,-0.000405787994550462,-4.143502963091459e-06,0.002257925509993327,0.0005023910275479928,0.0006222780122977458,0.0015284777123594742,-0.001214591681082578,0.0025054286958166036,0.2452154430213537,-0.0018142234477609058,-0.001066235562722849,-0.00010183867148262231,0.0010288420518338554,0.0023745163153647067,0.0015224000373858695,-8.84362971350764e-05,0.002050290939281254
-0.0028811256352851322,-0.0022018714357300343,0.0009921288834216226,-0.0013932033691585934,-0.0009967986136630357,0.0014178418542653884,-0.0006316158259902994,-0.0013548117198388307,-0.000976899916403521,-0.0018547591290084342,-0.06586188421564092,-0.0029161138300346284,0.0033149572477572608,-0.0005738142305894807,-0.006696401277297577,0.0027894547687671014,0.0023722329923537826,-0.0021994067738901764,-0.0006202482142054673
-0.0006950206177153237,0.003796624019025845,-0.0005356510848124786,0.0018519825546048382,-0.0013755727988376467,-0.0014657653127113483,0.002618142559115791,-0.0004047156284257053,0.0019815711025333023,-0.001599370537553973,-0.13511655711415035,-0.00016663152303866577,0.0029958559142426364,-0.0013097946409940434,-0.00676674682117409,-0.0007679924529608139,0.0017392986534756944,0.0003625541313396559,-0.0017733015174892627
-0.003429351311967013,0.00011385645969522428,0.0019313680326694183,0.0028527103830099953,0.00291580611487179,-0.00042955033355671025,-0.002645031748718497,0.0023061000825044644,0.0006036407934571748,-0.0012808309305484742,0.08329578803988655,-0.0005626358333553871,-0.0008767414743658529,-0.0009451832433508245,-0.0021306320602148265,-0.0024441684505783685,0.0003064230046428109,0.0017609504555433555,0.00024471834851995676
-0.0009840373492303318,0.0016101426471195408,0.001586213747847955,-0.0006147783065844695,-0.0008712787744215887,0.0015460098594510877,-0.002822420803467697,-0.0036978543880387773,-4.7710728462630484e-05,-0.0015453046881195522,0.00046752248792200147,-0.0006120120695581305,0.0006690317235483108,-0.0030154950806890652,-0.000631834708655564,-0.0009652495310857961,0.0015223224824359345,0.0019439921807466222,0.0008631159019669213
-0.0031946372751344367,-5.474847083472286e-05,0.0030802612718154303,0.00043550960085561124,-0.004320960887076529,0.003006429352257576,-0.00014989185145759264,8.310243526084838e-05,-0.001297504949755726,-0.0018401319519666202,-0.0888267821962131,0.0023992364844219382,-0.002479221676730777,-0.0007166790090144705,-5.174688395216109e-05,0.00290786997745797,0.001654332959463939,-0.000778060347077673,-0.0010733497807135497
0.0011073948129946228,0.001747263715998606,0.0002756258675193951,0.000681023555013336,-0.0017110876732588667,-0.0019345590084111788,-0.0011837719668133502,0.00019811689027240582,-0.000513243210123007,0.001512488186260966,0.013324759983648127,0.0002161916478185655,0.0029324736053545253,0.000749471411320321,-0.0018769545309073113,-0.00012231359624840368,-0.0014620137749508403,-0.0016170846378982286,-6.811647237112298e-05
0.0004432882219335782,-0.0017102123555424906,-0.001847220351658303,0.001030291461039073,0.0017006576419322033,-0.0034783483952488146,0.0011265627941353306,-0.003866317176534578,0.001135670867600196,0.0019279460538800032,-0.05031056854341015,0.0014847872654050042,0.0018899848767921382,-0.0010925087183839568,-0.001597793590396287,-0.0016562444831537012,0.0006453057773953104,0.0023499298246635143,0.0011810788675808727
0.0029505381379729403,-0.001974017191035291,0.001958932578139203,0.0017873819559605431,0.001064633115024706,0.0003156480411844986,-9.583419109356261e-05,-0.0005906112525439491,0.0005937363456575971,0.0009692455693814057,-0.036805121015550904,0.002890706908999727,0.0011536020999139496,0.00018744242267292247,-3.217211398542585e-05,-0.0010713385673622978,-0.00036045025228298493,0.0037763464151510245,0.00017109172201277713
0.0016510078126068001,-0.004966811150685225,0.0012975639115115581,0.00037579477316725606,0.0014969015422316922,-0.0015852848444261702,-0.0019473924906175338,0.0020481118944578602,-0.001651827231747969,0.005483752989499662,0.21137400949327118,-0.0041528354527895234,0.0009993505641839684,0.004539333848628193,0.0012727560599517596,0.0010475048836350107,0.0008783015876166412,0.003716976323738008,-0.003220649475935617
-0.00019059468260711844,0.003392376520488332,-0.000805638330209724,0.0008903332037373575,0.002299068790786616,0.0015399822433503736,0.0005808824147734897,0.0015406797209250387,-0.0009252617735895184,-0.0017634892504817172,0.08241640588354061,0.0022400790476842323,-0.0009017263188416619,0.0008255320136814911,0.0013825894464262827,-0.002310624075868412,-0.0018844495599488768,0.00044261580122405205,0.0027842205441186807
0.001798896689558837,-0.001963798556310511,-0.0005420938716629516,-0.0015562795981229848,0.0015437247067211113,-0.0005282012007207566,-0.0012953506774427777,-0.0011848827279753065,0.0009201049261765777,-0.00029074848285467114,0.01653034473034738,-0.001834601793209886,-0.0010921361498650861,0.002342904905060759,0.003076698303227269,-0.0009529524683453882,0.003486866622493822,0.0005817091244599074,-0.0004591778885255023
0.0011303724325038979,-0.003258723958055376,-0.0022239013478840583,-0.0003280662823035637,-0.0013665552537096483,-0.0025834161629503635,0.0004960729817215799,0.0003031741646263863,0.004762453506666088,0.0013568309419833137,-0.13638176322303897,-7.398133412757466e-05,0.0004160388351012634,-0.0006192020374240904,-0.0005645737205162105,0.00020386726938792,0.0029807588395340183,-0.0023117261216029188,0.0032815933645853395
-0.0022802328618402173,-0.0007342357689241185,0.00233712239297099,-0.0033471864972355802,0.0019798561295669456,-0.0008917095938215247,0.0015047438684805488,0.00034494055855842354,-0.0008347387512093649,0.0022043441606855478,0.15487251659514722,-0.0023376007959034716,0.0008977640975931385,0.0034360780574753465,-0.002044682003991392,-0.0017171298065663642,-0.0005770912560157886,-0.0012783501565508933,0.0007487229664918312
0.0012411740593444793,-0.0006097242366562778,-0.0010332824807462984,-0.0012782228608691944,0.0031427521496038935,0.0028163727520452955,0.0017674646260543052,0.003158175022354546,0.001316700946557185,-0.00018098619292317947,0.14441146697820872,0.0005203215720409479,0.0019673856300992617,-0.0018147071597221863,-0.002363625749903873,0.0012360263228329232,-0.0021348185546925754,0.0018913080014387907,-0.002481494093447734
-0.00020726437578475306,0.0013957884349620928,0.006157542603504365,0.0013263451201776762,-0.0004514183429469523,0.002203761545353808,0.002542045756244295,0.0010400061616384,0.0004522675073452823,-0.0031264338749505674,0.11943154539166258,0.00024325831641332438,0.0007823270960654805,0.00030809073460280357,-0.0020127195408132705,-0.0013554792213278071,0.003678254696177042,-0.001037768493298586,-0.0004208901836906463
0.00029349765403463465,-0.00019060054594376017,-0.0008557902476407988,-0.001980773745254043,0.00022414819175097826,-0.0014902859044215353,0.00211980174245325,-0.0018467179365849054,-0.0031914720933761075,-0.00021407324615236616,-0.130830507409539,-0.0032409014438694655,0.002229957929017248,0.0011995471334540504,0.0023361832594246627,0.0023193000072250043,0.0010347782040137116,0.0007709053710454567,-0.001404525743110676
0.0028113145311319206,-0.0003912823406638882,-0.0004490205499544837,0.003938761521231599,-0.002910957646495097,0.0017187681619354753,0.001558368003234103,0.0003284320498509884,-0.0014802087736832026,-0.00039309114427034137,-0.060497181824822346,0.002285550766741032,0.0008910512006569673,0.0011760539840720517,0.0033560891457111016,0.000545297190391762,-0.00033896583368468015,-0.0022259042265631132,-0.0008405011089467057
0.0003673221219599424,-0.00291215022860556,-7.966816993773764e-05,-0.00407843389286284,0.004634857425544016,0.0009369889432188659,0.000625224795931805,0.002511979331544865,0.0037082969315674155,-0.0003644688403315247,-0.05938625584151295,-0.0004834430246805502,0.0012732855542409128,-0.002856779655262226,0.0008689987707769836,-0.00024691043181851625,-0.0014540770575237482,-0.00035263376083913804,0.00031241422144080754
0.0017782778752508859,-0.001792894940349118,0.0028145270697631153,-0.004254974781393124,0.0035397770104254414,-0.0014308863229378107,0.000702773075319939,-2.9132686247260167e-05,0.001421432850174139,-0.0006906045333498967,0.054778890461991615,-0.0023650420305312875,0.0013190011472157053,0.0022067792461334867,-0.003006781411565606,-0.0032280014928545964,0.0034079621349364445,0.001188100147158602,-0.001259334019938148
0.0005789884926998418,-0.0008456459920330098,0.0013648498805518727,-0.0002254621421848377,-0.002327358499476569,-0.0013473992847259659,-0.00038525519446508594,0.002390491683173858,0.0005772812012528238,0.00342569975511649,-0.0012648133895564976,-0.0025318897925037352,-0.0010530734359111343,-0.0011422786267028333,-0.002710608168250826,-0.0008722362931191975,-0.0009087147175556308,0.0012288540403904364,0.0005756692262819421
0.0014057236766027424,0.0006774459962827072,0.00158483569533745,-0.002022044252090667,0.0001928526842365294,-0.0018022315936852753,-0.0010754175587007018,-0.0016453112297698342,0.0032503600306169286,-0.002523682483393115,0.09778255030528471,-0.0014706183103074272,0.0041917603612439585,0.00080454980093336,-0.0024178357391056128,-0.0007471803667857801,-0.004851110877133919,0.0004423981473231734,-0.0002104282813609136
-0.0006633853454073081,0.0017080028225275239,0.0010832317112576086,0.0008092931925271267,0.0018783269678603332,-0.001687740493589236,-0.00013181619563160143,0.0023212855117094354,-7.747552110120116e-05,0.001516126514050165,0.0397719213586257,0.0011340783371205077,-0.0003538468670223653,-0.0009513026378382503,9.893496316186764e-05,0.001823235151944696,-0.0014210176612712562,4.4551804526067756e-05,0.0017447022897549302
-0.0015012250022628582,0.002758090389615611,0.0002658692206741931,0.0017643535210914278,-0.0005691873810032158,0.0029389728232199095,-0.0003083358290822557,0.003638218665918405,0.0011002278494891657,0.0020315375061564986,-0.05227165393186658,-0.0015215301139893905,-0.001267721073788419,0.00033178838162449927,0.0013482534048587201,-0.0012446350350977479,0.0009455991472452164,0.0007906380623436739,-0.001513395379748682
8.30103574916323e-05,-0.0011121511559459855,0.004579033877012944,0.0006954302323597002,0.0010013293382956179,-0.00018331218240406582,0.002337858446242693,0.0013085981156390407,-0.0005285236900098738,0.0035566303863403003,-0.20755780050406483,0.0030509617333225767,0.0003586718859542854,-0.0006252890892655426,-0.0015328782106662762,-0.0031036729418631986,0.001420416443758734,-0.0017126398307994197,0.002489500661503968
0.004403347604932449,0.0033337377588550337,-0.0011479934936129317,-0.0011764233589740968,0.0004971946274539254,-0.00038112770066715135,-0.0008478405851767928,-0.0004868214403345766,-0.0007465276358678248,-0.00011339819420422818,-0.04746314182229104,0.002246751396756681,0.0003963107269221691,-0.00041938517422845895,0.0036110367416020443,0.0007243116673474738,-0.00084953276904353,9.590362057225245e-05,0.0001714606477720021
-0.0006146373497067846,0.00028618208634823553,0.0005783016858530304,0.0009600251544610378,0.0004762366951475464,0.0016277128665140132,0.004846944147499424,0.004456804020702934,0.005356059706012623,0.004076895651343345,0.0909277517543275,0.001410215792347289,0.0017599873317805934,6.478065036127829e-05,-0.0006021055153897023,0.0001486935842517487,0.0008988273213467681,-0.0003323235220987832,0.0003226176423861675
-0.000530463014816622,-3.308474461351623e-05,-0.0028416202312628656,-0.00022884102750201764,0.0024985079427474145,-0.001173516261096612,-0.0020106019338210946,-0.0006367733272649425,-0.0010305374786379717,0.0001321507666401817,-0.20819514905430384,-0.0010274185067697973,-0.00020561091147448945,-4.2884616423681004e-05,-0.002642146723992705,-0.001908999231239374,-0.00011205115569541938,-0.0013731116756532473,0.000505982300722028
0.0015422484417684844,-0.0029230000565715754,-1.7814576328699427e-05,0.0014165372286598684,-0.0013577840934921996,-0.0020864138847605184,-0.000334631564427698,0.002213714370794356,0.00115586892230546,-0.0001448750268633654,-0.2716750314758071,-0.0015109589149354132,0.001248263546308558,-3.819898192896423e-05,0.0022898161240902173,-0.00343868622707139,1.8867100442758834e-05,-0.00012279005647237372,0.00032613271493535037
-0.002691129504051559,-0.002920531312745364,0.002967403561642039,-0.003972184466648635,-0.002526921674969017,-0.00026295167992869064,-9.90301819292425e-06,0.0019266347433549737,-0.0015129669842711517,-0.0005799343277595327,0.10613179296610434,-0.0018450457388250073,1.061603120079098e-05,-0.00013974520773813825,-0.0004362548092516006,-0.0019375708363258022,4.5189357917455673e-05,0.0039090598754539085,0.0008843802209578943
6.487914463342451e-05,-0.0004495399943297556,0.00046032039549598455,0.0015678875424011071,0.004833494139325932,0.000788048480410268,0.00026758648485091565,-0.0013341571200274059,0.0004311643127826605,-0.003080140340750135,0.03523646979359115,0.002537433104012178,0.0015644353552267663,-0.0013985250106572514,-1.5246473115714108e-05,-0.0011188129722355695,-0.0023855191806479363,0.0036262249986173264,0.0014269966433019157
-0.0020626240408109986,-0.0018117424578091533,0.0022445579683673194,-0.0010593790973261671,-0.0014554038554650134,-0.00011726488447692656,-0.00022242618977312182,0.0003197289758488884,-0.00037714495296463667,0.0007670414548350644,-0.357627858293127,-0.0009175040985602041,-0.001994550551670474,-0.0031051861556978927,0.002706868644002765,-0.0021443367592062007,-0.0008135184002923349,-0.0012504458063531696,-0.001806500193219876
0.0037583788352803307,-0.00035167532575900996,0.004553205894229819,-0.0011438900906112668,-0.0009919772726566045,-0.0022771227774341985,0.0029859768471511413,0.003043907224981198,-0.002116133552546492,0.002478069251200337,0.04509255474139023,0.005193597914424793,-0.000773290536055658,-0.0006887273518578818,-0.00047692832537088063,0.001742206171705666,-0.002357628414029795,-0.0007121909881000929,-0.0021874157308970363
0.00031955732359783754,-0.0008114057744000638,-0.0019218228579512017,0.0015474185871745406,0.0021287764519416293,0.0002542180434985218,0.0018291020574064294,0.0014756026074119457,-0.0025859272782425675,-0.0003070752068471887,-0.30446642112580813,0.003464532760079036,-0.0021550405553986407,-0.002401498758244591,-0.0009655816845703406,0.0025419418359099236,0.0025005839531155286,0.003305047625476646,0.0027505891732783057
-0.003289991731310794,0.0014453023720814569,0.0010190162567855789,-0.0014517993233452778,0.0006565619547753648,-0.0011546069213313023,-0.0018732831887287992,0.0012654559896449161,-0.0037355959891588273,0.0001729258686238451,-0.08710625178276883,-0.0003769493855376101,0.005180577405557787,0.002663391262022146,5.5354569322089756e-05,0.0027258379469359043,-0.0027242012599740374,-0.0012422529174215403,-0.0014073881282686534
0.0008795431783423305,-0.0015103653108732335,-0.0021525230341157115,-0.0005677587107678273,-0.0018555385010775775,0.00042381594976942757,0.0012913970284761512,-0.0009464378803454533,0.00011081583698609666,0.0004493523326716589,-0.10464207939036349,-0.0029620853042021554,0.002026339060441289,-0.0012843304461273542,-0.0026430812506016703,0.00014331136523801772,0.0022293473206363924,-0.0028686183255157,0.002366340150018308
0.0017249467543643887,0.0013946075769607953,-0.0015316683979295774,-0.0013760111524121219,-0.0006533950732770356,0.0035221237024270365,0.0007424896162706114,0.0017868665318129025,-0.003772596367846587,0.0003317578025562098,0.05704677672602605,0.0023504928744715473,-0.000768648014328325,-0.0014758931013663934,0.0007166375481833093,-0.00010432755729265669,0.0005179932036002693,0.0006581672712123161,0.0004912342039664224
0.0027101749947744764,0.002037884169769167,-0.0018539181539786597,0.000774309093737683,-0.0006807800158729301,0.0014910563353128642,-0.0023079627810632217,-0.0007860215308265001,0.000851966688931425,-0.0018805861464828116,0.0542480228732746,0.0002885048993913852,0.0027277328976319545,-5.746468552865951e-05,0.003040786903486076,-0.00035880134635856066,0.0005627689106663955,0.003834077047671371,-0.003347382781103387
-0.0016283451526390542,-0.0027700080376849524,-0.002762909084430384,0.0005560571376468851,0.002747937184746653,0.0021827170736219083,0.00040953041639477355,-0.0016323123770145315,-0.003042462694847144,-0.0001673322601287355,0.19804872946788987,0.0002976690157963358,0.004962233090188066,-0.0012790355987316693,-0.002394847783050695,0.0004940406791439786,-0.0028409809543784143,0.0008682388534756851,0.0003273894853613352
0.0003810370927409946,0.0008796885857322081,0.0018161917290219218,0.0020630592163954167,-0.0019964747301854696,-0.0004138463942395691,0.0008919931483346154,0.0005641673347793017,-0.00026968158635360214,0.00351092878564183,0.0521923830359482,0.0015688634382099243,0.0011488382365082103,0.0006148233369387907,0.001387805071300813,0.0027160909435577276,0.00026026483386039015,-0.0030940403309865157,-0.0016367203766472157
-0.0021592085039780565,0.001095884678391316,-0.0010436512620804108,-0.00010954460108043236,0.0014286025303650363,0.0016249322448858433,0.0020031768620001602,-0.00012901199699624766,0.0015498913562088296,0.003981753833748975,0.1368953452746122,0.00168385221653899,0.0018440940540431611,-0.0017500636457469106,0.0024685644806010654,0.0019606230731193,0.003520079263050391,-0.0015206177620207385,-0.0012154631787902846
-1.248951082316048e-05,0.0008633261862335611,-0.00024296851329791536,-0.0006176560413703641,-0.0011278460073897842,-0.0014703531372632008,0.00107360877274018,-5.2905751776429936e-05,0.0018475773459150757,-0.0007521630735929748,0.038265664021144924,-0.0009741767297498352,-0.00034290999794635735,-6.8371728935578e-05,0.003158619767918433,0.0023327553160137353,0.0008622430321745238,0.000839706224021665,0.002876114786757753
0.00110480497691826,-4.315137632458753e-05,-0.003190768995991262,0.00020905904107250387,-0.0013080246512528555,-0.0003339149169551181,0.004309462163039512,-0.00036997994943037453,0.0025143567348124146,-0.0020137797858619023,-0.007122440298191129,-0.0008865208939239301,0.0015226305932517594,-0.00017403979198270773,-4.437153688171682e-05,-0.0004626081522276751,0.004226311566987855,0.0012702434359324003,0.0014547985005100956
0.0014927466502127605,-0.0019870169947003376,-0.0011988215136400446,-0.0021314845773661474,9.30867279377022e-05,-0.0051878763974611275,0.0015915483248938554,-0.002007589681974824,-0.0006644099579344011,0.002581050243689732,-0.0932630374919162,0.003800025385210571,0.0012982078721232937,0.001890686755286533,0.0009269374244412007,-0.0034284092421730367,-0.0014810982336844775,-0.001341263589953495,0.0022294173410878216
0.0032711690398532552,0.0004296667548739376,-0.0014596718167693846,-0.00024558361143965695,0.00370054228795669,-0.002483898858937143,-0.00010293873032829339,-0.00037934115045348875,0.00040892029773216396,-0.0019902631159482284,-0.017215908632150848,0.001254151287432982,0.0016099149037151108,0.0011015063483089285,0.0002612429069661349,-0.002130378919034277,-0.0005834542104083329,3.589065238970457e-05,0.005662728246069838
0.0012852698177575207,0.0022337494226165517,-3.6809295156162186e-05,0.0026378664512508245,0.001459815958666933,0.0035766402627788896,-0.0036251800553649344,0.000588072734529958,0.001910229046498517,-0.003069800071151362,0.26800632793220114,-0.0013163309316378757,-0.0005947184352201581,-0.0016457161054748396,-0.003161330598849247,0.0023125016007235193,-0.0003230415557079029,0.00019668254022514326,-0.0016280437786558451
-0.0007225548865898468,-9.099224165169059e-05,-0.0034050047552023933,-0.003914995821742152,-0.00041022403097224505,0.0014412900108317966,0.00178328094373119,-0.004096944574064064,-0.0004598348499400868,-0.0004986775893810118,0.04188637431391145,-0.0012898158726434741,-0.001278214781592805,0.002265454085586963,0.0003351397228025455,0.0007068018057530943,5.104792505707865e-05,0.00016826888608879954,-0.0011450572281791209
-0.00040646273351446446,-5.28332759093631e-05,-0.002455479522391278,-0.0004685270005168971,-0.001399465347849998,0.002073210521412215,-0.0011550140507220227,0.0031261613402286657,0.0008844544194633508,-0.0011406493382143206,0.10592925022925608,-0.00024149093462640515,0.0009706242322365477,-0.00011989339166216307,-0.0006798609042525924,0.0002937934209661296,-0.00190661943339645,-0.0003198904960765573,0.00346095413507828
-0.001086112048575951,0.00016324060765597853,0.0008437795797200653,-0.0008920111685040103,-0.002314703228927572,-0.0018670177855060956,0.002765589394352418,0.00010448994179952237,0.0009637187601862246,7.165182705682859e-05,0.0802670132358272,-0.0012848444939294824,0.0014937135705659272,0.00010926523919613335,-0.0009232269719700248,-0.0021897537875178903,0.0010807328796876498,-0.002154462933175217,0.0013715043289186516
-0.00344067184455976,0.00019386242374140112,-0.0006224485306832168,-0.005425036386795647,-0.0007834628462591156,0.001870528021989695,0.0008073213119186464,0.0013419284098372482,-0.0022147134286577288,-0.0011046934008731744,0.037026781602726655,0.0026145586648964538,0.0014614096164475266,-0.002225623017647745,-0.0014539125647868177,0.0017436848045884745,0.0022439931600961097,-0.0009428235470126857,0.00046950535266296995
-0.004270628434173069,0.0008992395921209502,0.0007386545698318621,-0.0031954177692839134,-0.00025732504611990605,1.8270434597475147e-05,0.002691940973020218,-0.0015908607860715552,-0.00044357594120984024,-0.0006918103445446276,0.0725033075815784,0.0006662903128867424,-0.0008423199971047691,0.0007176831295489543,0.001564495697897808,-0.002314623045717264,0.0031117528746875886,-0.0015033929330666954,0.003394887884236628
0.0016267847995882594,0.0017029355398832588,-0.00021164605771068471,0.003108080681058133,-0.0013101374181110042,0.002542680439112826,0.0028626389588125856,0.003339377705013891,-0.0008100658454211428,-0.0005493343574799883,-0.10362587177765482,-0.00474177224318558,0.003066700402335928,-0.00485705090959183,-0.00010190559197701707,-0.0020065805690221727,-0.00041037605141217275,0.0014051865974203607,0.0003179606805807475
0.0004820765258858282,-0.0013972601272500612,0.00033268118827672465,0.00021200077764914829,-9.172815073907103e-05,0.0018734442980375087,-0.0014719096107449064,-0.0012291842018198396,-3.168734120078794e-05,0.002484709889806673,0.058543768347802096,0.0016565544795986325,-0.0017831982811954432,-0.0009764851459998028,-0.0038883186425123467,-0.0014459170186094548,0.0019984681727061716,0.00013589869266466742,0.0014044144966544666
-0.0003398448960003653,0.0030364466690171684,-0.0011196500195604548,0.00207283631767946,-0.002099703764702356,-0.0024338346435046733,-0.0005804150717688663,-0.0006554007831579863,-0.00035200117146675904,-0.0003670119720761438,0.07606281408164232,-0.002324958174559308,0.0007713491033017589,0.002828218563865315,0.002904522303418928,-0.0021446741442842842,-0.0021961274977024227,-0.0019014338467129507,0.0001039467779254468
0.0020726070710381105,-0.0009911928416420212,-0.0016735007382648233,-0.0005337759176087798,-0.002815989628449479,0.0017414034133370392,-0.0015021214373826316,-0.0012484599321823811,-0.0006679920016969557,0.0007390607634075286,0.06686778732124708,0.0013869856667871705,0.0017424177482755299,-0.0007193734738735715,0.0025316466975209145,-0.0002386597665962871,-0.002007871008071175,-0.0021756175248536067,0.0023400025425015995
0.002847432935070923,-0.002513340159087953,-0.001744879842179251,0.0012637086333819527,0.002885852161492406,-0.0008250555371177742,-0.002148672842582292,0.0006498527220674922,0.003197688302949438,0.0013558356607683716,0.12214170340453881,0.0026958168881336107,-0.001964500494592008,0.0014825406190296304,0.0007106912129086148,0.002962703069802525,0.001840483231972178,0.002432779651830212,0.002612190311346517
-0.0019296971455585435,-0.002631254375700006,0.0008715499418580086,0.00209268316595577,0.0006666604595749129,0.0014940361331877135,-0.0018515912734247955,0.0009212870274346473,-1.3209553440336594e-05,0.0005135824349338521,-0.06669275980674615,0.001648739591632981,-0.0010284414625413006,-0.004126227360849966,0.0016709626602013307,-0.00039686609959857023,0.0033437088948354487,0.001505378173829037,-0.001093332078823699
-0.0021372995746953925,0.0020459055353342502,0.0006553294592218188,2.9194209176114423e-05,0.0010786474680858497,-0.00016650127995684262,0.0048692535158596055,-0.0036226867207042007,-0.0027597459490548274,0.003355850046055879,0.04166097758551747,-0.0021598675851093635,-0.003228943681073155,-0.00012082071498813636,-0.0010405913171838063,-0.0031104611299792727,-0.0007938747326745792,0.0005208399239729145,0.0030211090823750383
-0.005164149818101014,0.0035429686075933897,-0.0015020009052070776,-0.0008901328874645267,0.0016035161725150267,-0.003390788572521698,-0.00020711266395844578,0.00040718439394465017,0.0024089350474229185,-0.0009817470113521196,-0.034651692648893374,0.0005775440469410537,-0.00484992645949239,-0.0023033317422850585,-0.0012381499383411652,-0.003202594877913536,-0.001605489304040628,0.001814163197033978,-0.0009198551101761872
0.0005328100347503237,0.00040884461096722734,-0.0027217600937640427,-0.0008927579695925754,-0.0015377428907918083,0.0015355906683653393,-0.0003931184088614401,-0.0019853657700153204,0.0015426843416348171,0.0003554596075233696,-0.16810161637439794,-0.0024677786809077524,0.0008215548577917773,0.00010598663549710876,-0.0024255603724226103,0.00021013991833047403,0.00016596306553130956,-0.001720385212644618,-0.0006886705200320073
0.0010136924524068102,0.00254663694944933,0.0002487456293598434,-1.162476312133321e-05,0.002113573549005382,-0.0008489054187790472,-0.002410416939764913,0.0014884602757971488,0.001129859707801096,-0.0004738038457183566,-0.00403852324288048,-0.0029726574694113363,0.0024096178789461084,0.00137679912263536,-0.0007784640947164082,0.0038956877836328558,0.003697743167544747,-0.0010307798576248313,-0.002794963990493848
-8.685682088265892e-05,0.002949148334484321,0.0005702845363601016,-0.0040591793952877275,0.0017726245360801711,-0.0007328690515175105,0.00018846431370554668,-0.0009464361526116152,0.0013685105733356843,-0.0010129546282428075,-0.15630803362662893,-0.0025526488990099397,0.0018293045456434325,0.001980450445029327,0.00029919060100510757,0.0013915476209371334,0.0031672691313689356,0.0029813197095361023,0.0032194376662314055
-0.0018915054680588498,0.00318477700977956,0.0007096048021359556,-0.00038405168271683527,-0.00044138487366209565,-0.0020701146838373896,-4.097030745999237e-05,-0.00294379009500807,0.0026608334428903733,0.0009635447426003983,0.14190240056885098,0.0035982611450333076,0.0011158877367643215,-0.002610906526924412,-0.0006601868524194976,0.0021651138812553623,0.0042527136615549965,0.0011049519152138956,-0.0015168572363210941
0.0011525842598288966,-0.00045868574482796397,0.0014538011549373613,0.00042002640110566343,-0.00028488679871694245,-0.0012803651829123852,-0.002487337054013192,-0.0007411107941871798,-0.0019719808211396926,0.0001610511817017911,-0.016442907858923224,-0.0005740154306346644,-0.0002952288689855678,-0.0036861952707924785,0.003168610428947711,-0.0010034236697875093,0.0007023545707695062,0.0002641937285098196,0.0076097459683950016
-0.002810004574892191,-0.00026577170449336185,-0.0004494005137692088,-0.00019142697628460982,-0.0026093660547299074,-0.00188260237904815,-0.0009437624289699212,0.0014763134918085933,0.001695685938862873,-0.00024597597459478357,0.0801172191281163,-0.002169707596397292,-0.001971477639259782,-0.0019282771091853332,0.0036717385411462675,0.0013362771024281008,0.0030227699947145796,-0.0014097645971716676,0.0012881322170792385
-0.0009469055280131109,0.0011074413154490742,-0.0015130009909483165,0.0017351770259541987,-6.869974609599099e-05,-0.001264165107514574,0.0017958323075186273,0.0018442477621491984,-0.0015522103617350881,-0.0003291386022104198,0.05135091922950642,0.00015675941460335482,0.0012922662436567196,-0.0006516097960971315,-0.001115456672792703,0.0018553162242606694,-0.0005322251626355087,-0.000688334669926473,-0.0007353740237182803
-0.0006673978699002943,0.0008813012469372916,-0.0005544322270076403,0.0031381692642682597,-0.0014594330143493778,0.003710825886528099,0.0003975619269223135,0.0012193961050644226,-0.0003616650794020361,-0.0005088057068723825,0.050858939290231976,-0.0016270498043130634,0.0002413860032307674,0.0006370356521891045,-0.0011724250551768418,-0.0017822791918238035,0.001795202878054937,0.0014904340190161534,0.0015994994933878264
0.0020828817067263293,0.0009360224219104309,-4.022691485528463e-05,0.00313744484516902,0.0019221250019267088,-0.000285009297285882,-0.0004490641019955212,0.0004426499892650167,-0.000517050959332294,-0.002272596234829362,0.14387786390300686,-0.0021729472461062744,-0.00038995819963249455,-0.005977916125124766,0.00035941240882435066,0.0017355823795318203,0.00030768976288258635,-0.0018320547181827041,9.025140175927968e-05
0.0015770957830144065,-0.0007925610274573763,-0.001669602327662538,0.0010914361646661582,0.0017613202118656798,-0.0028718491067512325,-0.0008533567676048388,0.0021512604340081683,-0.0017575204399055326,-0.00028845875827948576,-0.07321875589395481,0.0004564435247896068,0.001966521358321822,0.0033665532727789474,0.0004359411529941086,0.00013488897693822338,0.0006481555004251425,-0.0007741117605054528,-0.0009787528050092388
-0.0005880142693228991,0.0012403360766184521,1.8086491268054976e-05,0.003990399250643632,-0.00047742397020894556,-0.001738358704905707,0.0017925262749499443,-0.002753559999741467,-0.001739356240708233,-0.0006449909470697414,-0.0749184701858315,0.0014590553349324471,-0.00225042129551579,0.004314565405102267,0.0004527119579324996,0.00039279106371953114,0.0007010923647730501,-0.0028864530798532453,0.0011266834647371844
-0.0021114237065105036,0.0022798681224666427,-0.00022179695146860832,0.0015425391938487093,-0.0008335815904128904,-0.002523826824192995,-6.607032882625142e-05,0.0022020022521624205,-0.0014818276902169403,-0.0001264077804912736,0.2593770391493888,0.0011063967730448215,0.004131493524620972,0.00018775511146727243,0.0016926956916516822,4.4093746710567795e-05,-0.00034738016653698684,-0.0011377163031315767,-0.004848082478695319
8.307916721619058e-05,-0.0013415788234038086,-0.00030758138623496596,0.0019236924458136703,0.0022883375656191623,-0.0019294007469817097,7.49235035885485e-05,-1.2539364393744524e-06,-0.001808121941488496,-0.0031070114623602692,-0.043901144186754705,-0.0001424619522671114,-0.001793954819342634,-0.0005702429749079412,-0.0019510190887671234,0.0015152433342733957,0.0020376686400251877,-0.0022277311485546015,-0.0016835963395127776
0.0009619354336997814,0.0005260781449727477,-0.0024001107188000525,7.783927092032838e-05,0.005024837489683358,8.34453890437902e-05,-0.003009686470887849,0.0002829898304469639,0.0014417042100962239,-0.0016077140015414986,0.040935650218546955,-0.003982831440095885,-0.0002847487316384253,0.0026357094914056575,-0.001541529340406235,-0.006376438051199918,0.0005105679516417487,-0.0027264958915207914,-0.0033484753312494173
0.00016647714718865352,-0.0005940831144209262,-0.0005302617190645809,0.00020401737978289247,-0.0004455038111466233,-0.00032847165762038354,0.0017815675121222473,-0.0020322546486519133,-0.0011752470750148445,0.0027479269875788797,-0.023474364256005124,-0.002556265435401566,0.00140765159950021,-0.0023464089503600384,0.0014805780261450954,-0.0013219757954363632,0.0012817377083026798,0.0019483873686568947,0.0015783543705354926
0.000949055264894217,0.0017543038162753024,-0.00141337322795319,0.0005089437781281009,-0.0005306317734717368,0.0018407894206330122,9.648646433204933e-05,0.0008699258574555835,-0.0021317150115086063,0.0020188564054128945,0.030936682659504246,-0.0007058170926946615,-0.0015963133848824575,0.001236145421435826,-0.001538602930516427,-0.0012012314114028576,-0.00024004697593077705,-0.002236345158629052,-0.004033241320117485
0.0003191965158614767,0.003522851448670184,-0.0026027016483600135,0.0013177616087384069,0.00015285743676825495,0.0005289470399822214,0.005204046349252171,-0.0015742539008827283,7.713909237340186e-05,-0.0011447518778054133,0.1608748051855403,-0.00019843410438776605,0.0029439559640264154,-0.002952144989282052,-4.144832684568775e-05,-0.0017036189542442423,0.0017810321920544256,-0.002129541617625104,-0.0017861840482207203
-0.0009647391906338155,-0.00035559794223315644,0.0019459521771400977,-0.0027370454011515694,-0.002611843367701935,0.0003609321543437505,0.000582807363271652,-0.00048615864132388147,0.0023059577386009716,0.0019046494961951058,0.06705774798768124,-0.0019946820149809967,-0.004504756907109039,0.0024508576827840067,0.002059200809184617,-0.002015311748009442,0.0018405135910671724,0.0032300285709286193,0.000896355680205766
-0.0018756750659324533,-0.0004758452079214678,0.0003083987650315725,-0.0028866102021049217,0.0027064135469290185,0.002259577084910184,-0.002413565417780861,-0.00035757453222512014,-0.0003380700846558126,-0.00038141827072999784,0.03681304936739652,9.910359893949897e-05,-0.002868018001228435,-0.000687949521722043,-0.0007329912614443103,0.0007388959441960832,-0.001333495577538611,0.0023124666984905805,0.004193802233007506
0.0008736377020326419,0.0005789666281668302,-0.0009088232700176675,-0.0013414278216293707,-0.0015429746901924528,0.003391493447702812,0.002285823512288105,0.0016221919669235929,0.0022291942795556736,0.0023421131520025566,-0.08200505337872033,-6.886865256937405e-05,0.002855422124187214,0.001942321746895386,-0.002796737311475534,0.00013198784841189897,-0.0020864105703243202,0.0010708008277030986,-0.0007980601337627455
-0.001513526918567937,-0.00010993367926199903,0.002825320139548283,0.00041707366381123125,-0.0025107466601492086,0.0017333750074316158,0.0005020019768328974,-1.7301261737530384e-05,-0.0024960724637494284,-0.0014904992250052765,-0.026193852528382466,0.0018523288808163234,0.002238676915484184,-0.0019021807005378656,-0.00354295243334707,-0.0029428711865984347,0.0010492426360160516,-0.0010642748178795918,-0.0029347452441256645
0.002751728568254117,1.8792379916558847e-05,0.0001986258126979236,0.0010580089574115795,-0.0005841691600136436,-0.0014411722114237948,0.001062785714028466,0.0004932897793959023,-0.002575392114315393,0.0008351124410878477,0.01601369371981944,0.0020497673347487375,0.001404541416163387,0.0020721763808202827,0.002129297621446703,-0.0010772902606050018,0.0018062170639086572,-0.0009911977614031752,-0.0006141483418911548
0.002399813078006223,-0.0007149924316023057,0.003975043577524262,-0.0007311737446515366,-0.001643188432136817,-0.0007417522553496943,0.0030455792024109323,0.0007011654264637793,-0.0027812083155194607,0.0024552952097097835,0.2539020495891224,-0.0019360333575772644,0.000778184634234711,-0.0014725369265567653,-0.0018527147141568718,-0.0026701784230316328,-0.0018417374565628285,0.0014228918033116677,-0.0032073809613222385
-0.0014322556418020198,-0.0026519704764546206,0.0012460786138887776,-0.0022639485572688496,0.0018778639054215598,0.001142968739369829,-0.00119176053644793,-0.0012081691764376217,0.004188253529658865,-0.001039230557431931,-0.0038462187754853645,0.0006670271345490784,-0.00020377402314311543,-0.002964196204932468,-0.0035877081194399924,0.0007885160884827815,0.0007393368707411547,0.0008669438970439679,-0.0005802926112343945
0.0016409644815367466,-0.002652806442384834,-4.392902691523328e-05,-0.0014201686698394717,-0.0016528731897618911,0.004599100278866349,-0.0011998346017077493,-0.003107125977019446,0.0018304462002194087,0.004462937179842814,-0.10177780619430522,-0.0008069277522859902,-0.0018345687513886323,0.0025790217905423325,0.0027369178303048307,-4.849593758543935e-05,-0.000492999257377669,0.00023049002275164765,-0.0014824388820892957
0.0005476663371830587,-0.002349559200573558,-0.0007217824123494185,-0.0010671602039275998,0.00015390860896525237,0.0007709385787764149,-0.005835756843073901,0.0016089815757342177,8.872677326317843e-06,-0.00069866906821289,0.04382594105593188,-0.0007991310551276192,-0.0010959500532618607,0.001888742465065704,0.0034285678485652137,0.0026660574805871546,-0.0022259926013300994,0.0029370951923746685,-5.055977896775334e-05
0.002517372441209008,-0.00010535363062227512,-0.0017902799318194457,0.00198598450187049,-0.0011590458943960857,-0.00044095029181044583,-0.0013974886661129694,-0.0016544211229464125,-0.0026531279223727484,-0.0024890166388248087,0.21207144830518534,-0.0022707224985658524,-0.001804657250249582,-0.00027553567267215884,0.0001614114852512173,0.0022778690386740926,-0.0020425128352139243,0.002710211812915684,-0.001180305361413089
0.0006319030575487095,0.0031615490055851778,-0.002605716798390445,-0.00039105178019581145,-0.002660304146918025,-0.002785223527789173,-0.001040850409093062,0.0015360545283919203,0.005710058602502029,0.0012905244832689439,0.05418353994323657,-0.001744892673771264,-0.0022500237779000585,0.001235410299927314,-0.0009168479277673294,0.0009497482961659076,-0.0022032229461025846,0.0006669331130220166,-0.0018197410232552527
-0.0010462253382650364,-0.0008028902379779148,0.003353169741814551,0.004292215442582538,-0.0019404557193016606,-0.0016683732624546204,-0.004001429085657942,0.0019400187569051255,0.001526571333380402,0.0007627599306103418,0.12302131299966242,-0.002701482192078284,3.0867146206924745e-06,-0.002848383634662772,-0.001402578814260184,0.0006320246604810835,2.3490597842546793e-05,0.0012002914023369357,0.0005733252992103789
-0.0010950797288300342,0.001984960161807335,0.002440810284094243,-3.9080732992591095e-05,-0.0022108548011823656,-0.0005085099501050471,-0.0010106807034260656,-9.555898964661308e-05,-0.0017449605534590068,-0.0004362575307385463,0.02420266475638869,-0.0016529093163072028,0.0005403356311011182,0.00041115963078146295,-0.0007970584116675034,0.0024247129210906242,-0.001920017769403778,0.003714233169836095,0.0003396848532816265
0.001476439144997847,-0.00016910342666104337,0.0028763020265567918,0.0017381734214105564,-0.0022668915834084236,-0.001409541759240538,0.0016999104894959774,0.0044195061005913834,-0.00010881853661088702,-0.0017790475669278304,0.10477683119030068,0.00036078455255900024,-0.00010171801720410159,0.0005295977401780598,-0.0034339104917838,-0.0017095241535701915,-0.0007213607770892542,-0.0014169121101767288,-0.0007652919617284986
0.0027444388921138083,-0.0017491837255204767,0.0004687657413018348,-0.0006282341419562178,0.0007895732100784679,-0.0018227939482938942,-0.0011200861859099861,-0.0003209187170285122,-0.0006272618125085015,-4.388104082349316e-05,0.026312093782234855,0.0031328183985743227,-0.001384061566836611,0.0012402565718438276,-0.00034893253503375123,0.0003888945875433235,0.002479701085609221,-0.00026529320552587377,-2.8035739878598796e-05
-0.0017289889686382138,0.0030958264601516467,-7.847088094515261e-05,-0.0015209108873067215,0.00032327488004862146,0.0040773637504362,0.0007081644259964312,-0.0017831165443603992,0.0005588966492816573,-0.0022943277742959248,0.05477706753519648,-0.0017656603693683662,0.0002282766542789136,-0.001637474903579069,-0.00021862014340492847,-0.002046173168234443,-0.0013902942654666736,-0.0013439835658306217,0.0036859791083572917
0.002511145550961947,0.0009358405093653654,-0.0009380990409250434,0.0006399124089233288,0.00045603983918510025,0.0015310060482258462,-0.0026741120982638764,-0.00035680362968162205,0.0013270400353346348,-0.0018647853169836731,0.2939934091287221,-0.0002341474855731898,-0.0012406496047281097,0.0008869969100356334,-0.001521264762909381,0.0002277041539148104,-0.002634532673813462,1.1880279360447534e-06,-0.0008295218027156369
-0.0007566289868441806,0.0008629602702657348,-0.0019632920113428873,0.0004513200974525906,-2.8285664077401553e-05,-0.000973801514863417,-0.002798044949259755,-0.003939258241044699,-0.0017572775227046751,0.0007891499498927146,-0.015973675430983127,0.0008257740241769106,0.005071501201929623,0.0035906199242408897,0.00029592465075431153,-0.00029444529009486713,-0.00029625694300525126,0.0028565502856831,-0.0014257036081521102
0.0037954889984251326,-0.0024099369845944404,0.0009131508292942457,0.002254666379473389,-0.0014807229785027845,0.001518795535807395,0.0006460058643437456,-0.0024432836133640346,-0.0011298659337930787,-0.002384515209323281,-0.06828847702649248,0.0004943570882600736,-0.0003861785424553519,-0.0015455385692203071,0.0010398987690005855,-0.001571958125580029,-0.0012764501389594294,0.00315891248335368,-0.0020890441911094004
0.0012347374491784063,0.0017251182340215537,-0.0009794404080057943,0.0006694464700571882,0.0006858373133505569,0.002269767191081862,0.0026352736927154454,0.0008264876275272647,-0.0012989456559023588,-0.0004099997559007897,-0.06544159403546125,0.0009391027750989764,-0.0014858361558540575,-0.00033553891627909386,-0.00213868340846097,-0.000822041163975712,0.0016033630912799918,-0.000510374917077767,-0.002247805491036332
0.0015429071324796174,-0.0010706029716118003,-0.00396506226150877,-0.0022529818910746397,-0.00290883264417711,0.001794499503492384,-0.0012862782282831707,0.0023021973769721234,-0.0022435755304599254,-0.0009538714341320077,0.08140762896091627,-0.0009551484133072124,0.0011126390346888303,0.004425091446997087,-0.0018242746108910123,0.0006009217028776011,-0.004128350380785473,0.0022807594523571815,0.004460939804717533
-0.0002838248889426366,0.00048502427498242905,-0.0020523746405664853,0.0008070365648243158,0.00019703104195938369,0.002463681207703455,0.001427421238998742,0.002542853480712652,-0.00010414626888011137,0.0020515921841759476,-0.09947900253084527,-7.851557493981116e-05,0.0003022973259075741,-0.001375189483526656,0.00016814737130701853,0.004367538304746192,-0.000801157761952316,0.001443671287427277,0.001542477941959427
0.001612833759796342,-0.0018005394248216866,-0.0022834269417048195,0.004408768823477215,0.0022744044601866642,-0.0011918736100706732,-0.0026707780844972316,0.00017996932841149593,0.0022149796684368043,0.0024916532032847444,-0.03925353820441359,-0.0022192173774480636,-0.00232516617466923,0.0005070883129967781,0.0002603649693192828,0.0005590061632802534,-0.0012032903602650323,-0.0007515358948974578,-0.00037326122881284064
-0.001248799549497978,-0.004074107647499504,0.0023689183273102508,-0.0005006822650742536,0.00029990831066010234,-0.00038510598724179483,-5.954859214685956e-05,-0.0003794725365113495,-0.0007139091757960526,-0.0017292375611573881,0.07347141018580257,6.70339965292341e-05,-4.933892606169201e-06,0.0027300571323421534,0.0005064817693389809,-0.0008711476633502192,0.0031284181818425584,0.0004753627631555564,0.004369859913428551
0.0008749041901952337,0.0001507203399333436,0.0029550597385871132,-0.00029234461443154757,-0.0004613924940434567,0.00193358159614442,0.0022569971488541974,0.002616308279573401,0.00014609840761858783,0.0007220248700133857,-0.11736906175926705,-0.002542939897822459,-0.0033294070056230298,-0.002267800965416502,-0.0028317937342264466,-0.0012630927907016992,-0.0008491173303330498,0.0012440978634012726,0.002160020356660909
0.0002594140479333449,-0.0006076875397361822,4.8791382563139554e-05,-0.002429898383070166,0.0006416533686360398,-0.0018616364797447733,0.0001459765807081714,-0.00405352794457248,0.004432315305960943,0.00021772062044016804,-0.0023568232004171808,-0.0005958408897195165,0.00041111551802396984,0.0018905018472575724,0.0026723875416349288,-0.0005621088042712438,-0.0031297179692147624,0.0008623561971647838,0.0016734269754227287
-0.00214883458783062,0.001968560755864369,0.0032692771907963936,-0.002639345102441884,0.002021603261855542,0.0004504319881075692,-0.0003221419373881561,-0.00044407995385926523,-0.001958999314335022,0.0017311023791226415,-0.3150551826643527,0.0012035533323085177,0.0015948564900249028,0.0019225198347292843,0.0005191186010873536,0.0030089419939444218,0.002052499005420418,-0.0012199256821207012,0.0012983711688558826
-0.002293065217113012,0.0007918204757505154,-0.0003931098766335978,0.001423310396388177,-0.0011115232074528944,-0.0019268038589093743,-0.000779644538604168,0.002355031871663972,-0.0011679397228687093,0.0010350063510267166,-0.24730655740125848,0.0021983028982243916,0.001782769015672119,-0.0003321592670359272,-0.0006264870894313909,-0.006984006984894613,0.00028445676238753157,-0.003380241604347494,0.0004624010704782033
-0.0015049677523565543,0.00012735692291126682,-0.0004970177023137104,-0.0016862195072064319,0.004924755668775303,-0.0014928073462500012,0.0006767248141386203,-0.0001488941211061883,-0.0021867072264502197,0.0026377369773053915,0.11142520159547788,-0.0007419884187846481,0.0006092449233570389,-0.0010560825933658472,-0.0005665969574385126,0.0030737028940502854,-0.000741345771709269,0.001497477577778089,-0.0007462601752375301
-0.001669594967196576,0.0028475036440367323,-0.0006029966815015116,0.0015774067344067296,0.0016018697168097144,1.2440414884531455e-06,0.002706743696716859,-6.445655419535853e-05,-0.0021975014608470764,0.00035576409902847835,0.08136578291949106,0.0006555852222510383,0.0010051981323374525,-0.0033356490145174224,-0.0021453840018439197,0.0020666777720511555,0.002366612383433642,0.0013570386766432608,0.0020545399777075744
-0.0019052213206010615,-0.0014224878787911105,-0.0017121680324612882,-0.0023507798597255753,0.002045179846709853,-0.000862727699963061,0.0038824562112565256,-0.0021622181529827185,0.0022339861737456865,-0.003532505775471163,0.023592846199986136,-0.0046231339140194085,0.0031172946460658337,0.005590770114630513,0.0026376329057491384,0.0012129582996146943,0.002729249233272869,-0.0010034604768387049,0.0009740785207860998
-0.0005294878599693148,0.0013200389076204108,0.0027153063543615924,0.0007129645503409501,0.0006574274825613782,0.0020777255110368776,0.0003008311329733643,0.00020879226018848896,0.004700623956248197,-0.0018213758044682258,0.07706161773821325,0.0024840729517885277,-0.00044018183661141664,-0.000958774459398407,-4.992304184846132e-06,-0.0012764911784686566,0.0007552240028736135,-0.00037224463937577057,0.002401903234402212
0.001214385961137485,-0.0024260769789340116,0.0019817106994210673,7.63076787555248e-05,0.0008646484708984776,-0.0015001115073244808,0.000902431154420161,0.0010919814117691035,-0.00012529733288946015,0.00010562846825742638,0.08015950409188295,0.0013116844415344974,-0.002784472609619156,0.0026672406023650315,-0.003510503627022384,0.000269123363897653,0.0038143899532972155,-0.000258020807029916,0.0010095760897186245
0.00048383522822790885,-0.0016955641876026275,0.002298801881371506,-0.0011113866014135832,-9.069293799971502e-05,-0.0014268692052201051,-0.00046378814518626977,0.001563913069883284,-0.0015690198695143354,-0.0023096380572181687,-0.23714438316313644,-0.0010528394161171514,0.0005434387278492612,-0.004444712005761428,-0.0025803044703064586,-0.0006026711617242119,-0.0016641071562721738,-0.0006128785607503652,0.003257518929587944
-0.0010531787333812055,-0.0005449303890066583,-0.0012948328937785194,-0.001144799612488406,0.0009636245651732571,0.0029291803248019895,0.001004168933252798,-0.001206129354898601,-0.0020156094424871106,0.00018296153168649243,-0.022829461962252433,-0.0011901869027495396,0.00033951713914427505,-0.0014679184330492678,-0.00037054462972781324,0.0014769815297700124,0.003719209014640405,-0.000820131664512857,-0.0026860668384763404
0.00042008537471549355,-0.0017020111492883037,0.0009943310464842604,0.002400433080817853,0.0025549384567357253,-0.00026189414820125187,0.00010915303579461566,-0.000779450323415591,-4.3343679638500394e-05,-0.004876524952381131,0.12798307459145647,-0.0007628258126059545,-0.0024772014004764264,-0.0030461702933580626,0.002933686668198291,-0.005989976227943737,0.0009001834431548429,-0.0016245468336792241,0.0028108587004281767
0.00024301807056020228,0.002572426535177266,-0.0006206270184528808,0.0017725972665655545,-0.0006727866149351394,0.0007923404234716498,0.0002933041480024353,0.0012377530684116649,-0.0018882066381867408,-0.0009773454050090139,-0.2963850228103903,0.0020950044814365414,0.0005661150166388856,0.0025980242068185683,0.00020814709007996242,-0.0032207813370304763,0.0027667118494129556,-0.0026728251138362757,-0.0012542814229996153
-0.0020461797400471143,0.0008907407884259205,-0.0010328021244046341,-0.002896671457340362,0.003435936018891076,0.0003793571808119599,0.0006525010518402925,-0.0015543149895974472,-0.0015339031458210602,-0.000655942120365414,0.11437012799606937,0.0017568139576526985,0.0011148302145306988,0.003266175034795948,0.00205932470268373,0.0001988887934415721,-0.0003828871358314513,0.0010204982181522514,-0.0025323522964605517
-0.0005093397923037025,0.003045541710110986,0.0013961909880227422,-0.0013387688037827352,-0.0007550633806085075,0.001588652316928052,-0.0012345266804051722,-0.0008091359286981536,0.0017178840159020917,0.0030644062593103605,-0.11436168278906586,0.003129338758057838,0.0009511471851641974,-0.0031678380744913667,-0.00033242643130334165,0.0041392058146418696,-0.0030122609655344025,0.0019335832465930173,0.002835024949584193
0.0014214344372278857,0.0013919894104166737,0.002772824366449849,0.0005937865335308243,0.002187480933775337,0.0006204467054922232,0.0017639366472088193,0.00016449385139030983,0.0009369324091216622,0.002078484596550239,-0.02262039651643831,-0.001039176518676941,-0.0007424125456045041,0.0008945736767399144,-0.00047247322422113114,-0.0026527412042906167,-0.001678270878112169,0.0010186498279542173,-0.0018897842525535174
-0.0009633911284267737,0.0014658930990147675,-0.0012439837345809513,0.0012313144699002683,0.0006837960482530902,-0.0004912355518227545,0.0007885768553191643,-0.0009565155044937671,-0.0010208907299965224,0.0010569734940673755,-0.23567252447968007,0.0025928537339328364,-0.0024069001098103097,-0.0002749438657034936,2.6430780454846697e-05,-0.0015265688819705852,0.00021041347221989823,0.0011225366263146307,0.0011655202054268118
-0.0009660505609352361,0.002468552233009341,0.0005143515334279633,0.0005885039696350639,-0.0006599854911282857,-0.0009380784407694162,-0.0008250988235806202,0.002153403798275259,-0.0008231473547905878,-0.00232993185140197,0.0061927807023554795,0.0020463218078319487,-0.0024708789963284864,0.0008432843622280818,-0.0020762080660556245,0.0018643305357381084,0.0007138857053486245,-0.001318776476948507,-0.005214245745443736
-0.0007942646597685119,-0.0019470986444120454,-0.0012233979303743585,0.0003647441422325883,0.001397410805160334,0.002829507312039612,0.0033112818412065503,0.0003664241071463061,0.0019945943481211588,-0.002422921449848169,-0.042675798514576764,0.0032462362461825934,0.0006846368700345964,0.003703178322030857,-0.0011119472120567156,0.00015947977356955961,0.0009020757560300039,0.0017601762978065344,-0.0008478416110441046
0.0002336576105952565,-0.0007329631813100052,0.0039282666479969015,0.001774907016466997,0.0015151082831120208,0.003538167740339012,-0.002968990953296171,-0.0012521083253622983,-0.0005663996266907977,-0.002071758772923221,0.11203650322551147,-0.000839840113721175,-0.001968646719188608,0.00018945588879143598,0.0003906428025896999,-0.001956679380223952,-0.00022289603720083932,-0.005984391951846546,-0.0013334734154791916
0.0009684743400359933,0.0012466707588972073,-0.00017724599950522368,-0.0007371914250723847,-0.003266642459815106,0.001554335712987476,0.0018532012595534237,-0.001449435087047943,-0.0010570082382131438,-0.0022013290463788007,0.0371662002541459,0.0013815379291151392,0.001926809879794122,0.004058127064547688,-0.00029403527471038633,-0.0009344983029000298,-0.0007419718212294174,0.002133600456629232,0.002253401837108724
0.0010477744288565098,0.0009323606259737195,-0.0019088636133292687,-0.001634140345632876,-0.0010623070008082532,-0.002052696513081718,-0.0024832601364652195,-0.00032573938065395873,-0.0006705778532991552,-0.002930614045265562,-0.20814626618675922,0.001232419796132185,-0.00013206705669086314,-0.0025263692271282993,0.0018583579820328413,0.0024633898367765867,0.0006377841334219023,-0.0006334230563693666,-0.0008356919595674911
0.0005767927118835262,-0.0038798735154486853,-0.0016853916937694666,0.00047870340119858084,-0.0024844849362798903,0.0025314220878344096,0.001676540083334604,0.0005543239147846468,-0.00016968626367707708,0.00411917798217388,0.18018828413291982,0.0005478775313964439,-0.0011939889975344869,0.0016095156031540958,-0.00017817250054915357,0.0003005938872508859,-0.0001019560314179597,0.0005166342946035086,-0.0004473175637356547
0.002022339024240512,-0.0006929924145633542,-0.0013360873540536875,-0.0025930929183770406,0.0014045441121593439,0.0007784347141131158,-0.0008818309249508512,0.0003830793427494451,-0.0005348155558028679,0.0010012336575616692,0.009586315518615586,-0.0022704191652393145,0.0010768487926497892,-0.007021890022938406,0.0037452791173984276,-0.00016464465069988368,0.0011121051721508888,-0.001684307314473707,-0.0027052066794702287
-0.0011228456982965767,-0.0006392017280632854,0.0010201289927701115,-0.0036721589928598334,0.0006520446330933455,-0.002889491126113727,0.00011716588080255196,-0.0018362011593815663,0.00046289634277024765,0.004601482201295447,-0.03588770214388282,0.00016680671804910214,0.0009854089735212555,-0.0020156809968824058,-0.003324287851395922,-0.00034222731892574504,0.002260895317660933,-9.49067017907396e-05,-0.0022575051912482277
-0.0022970309662907833,0.0009947248707509533,0.0003943071287054628,-0.0015090872678054986,0.004057441312210725,0.0016710478077706615,-0.0007499870863447071,0.0011606601765528342,-0.0012713860089613321,0.0022183796360887398,-0.07311091238043954,-0.0016057523666063076,-0.0013224254688238661,-0.0008558723628997515,0.0008792752587903173,-0.0014702648696959639,0.0001871446974084978,0.001189963958958213,0.0010207167942176394
-0.00012892533313314667,-0.0015275635979163469,5.185046776923165e-05,0.0020029088811569693,0.0007900924379490216,0.0014478682227834349,-0.0016727854729410069,0.0024559903262567325,-0.00048208902470486977,0.0003857585906729384,-0.12355468882644664,0.002104534845528828,9.869836537503659e-05,0.0010067091318154476,0.0037817840599772452,0.001446149060225273,0.00023791662429510085,0.00017674474557402935,0.0024528455579561344
0.0014030821340418377,0.00048811561494854105,-0.002048410875598919,0.0015244275845200112,-0.0015217803606650299,-0.004068379782573028,0.0027970093722015647,0.0024786584288007856,-0.0011850893025765672,-0.005007900075413676,0.06684735789068406,0.0005129812691975359,-0.0029664058194559706,-0.0005558502880932131,0.0003139989581485498,0.003644724313371743,0.00306062272009197,-0.0031332250249500758,-0.0008935168340815285
0.0018915838615292952,-0.0008122239407101791,-0.003311684268357297,-0.003002035687135237,0.003121031378532887,-0.0007506592958461546,0.0033872893522727807,0.0005894597565041377,-0.0012136540730668913,0.0002586572659171749,0.05780614507434395,-0.001289143901499673,0.003604558495242598,0.0015399657557606456,-0.0010530973193015431,-0.002755591054214152,-0.0004408919532393384,-0.0007045028913629778,0.0016985334506282783
-0.0044826891122909315,-0.00046366006185048856,0.004406941971620499,-0.000203619768750649,-0.0011559971756327381,0.0002668550864620919,0.0024740682812384443,-0.0016864387549847413,-0.0003450254954274648,-0.0022632078747088936,-0.07127860942033637,0.0009961768906499005,-0.0027674757167329613,-0.003326024951620432,0.00024608341744068973,0.0028607797931936244,5.919245955700909e-05,-0.0007032593792960909,0.003134286795885922
-0.004396394947391015,0.00018332851676744607,-0.0002502963278180864,0.0010419451025325429,0.0007152797117142587,0.004800408876308173,0.0008686733840470723,0.0009516247918434969,0.002606034258407283,-0.002090841573922821,-0.06798497157091107,-0.000543194824274011,-0.00186696206905256,0.00033179975248041855,0.0006785502308934843,0.0020475241656746743,0.0031488853726777183,-0.0015272831360531854,-0.0002333910116013156
-0.0012419998305331422,0.000439191265947318,0.0006201552835803017,-0.00047121258764251184,0.003271697953412403,-0.002609962436148096,-0.003132358454599019,0.0030266758961428855,-0.0008628906432008288,-0.0028079606929722473,-0.05093412096224452,0.00016253185971214023,-0.0021769465000930025,0.0013706510268492365,-0.0015977208876533438,0.00020222421315702394,0.0021153002641377586,-0.002337826295009321,-0.0015035666392873607
-0.0032426979923776706,1.965295236878242e-05,-0.0018411670826178267,-0.0008771500015864205,0.0009574527253557734,-0.005113239808776887,-0.0022077145208054217,-0.0034510687914280497,0.0009143601609649859,0.002587815758805831,-0.08074804846650113,0.0002839686835005273,0.00097692394901171,0.00012507928383546847,0.0009537317442490798,-0.000979193487676606,0.0024425477241903936,0.0014035750299869918,8.360413820292489e-05
-0.00016459039711780703,0.0025472233159959125,-0.0034593328203293117,0.004432668130545381,-0.001176822767508809,-0.0010033043780330137,-0.0013721277025600105,-0.00315133597843058,0.0004845271702255562,-0.0007744535512925227,0.020126612927705165,0.0029174107847946607,-0.001712788552391995,-0.001446887215223599,0.0012421911218879233,0.0013045657324221075,-0.0008393578527202642,0.0007689287141315167,0.0017870311948124818
0.0010512131944096523,0.0005655574600469857,-0.004550470663103976,-0.0012581671652929175,0.00040986143783506093,-0.0015655591844123376,-1.9409818387460254e-05,0.0014168356992556703,0.0010054481353634966,0.0007089608121310615,-0.1586307726328009,-0.0009812966719528278,-0.00019973739790803672,0.0007334158407682989,0.003652420269865931,0.00045081064623117117,-0.0031226973369244465,0.00032837177118959454,0.0008085127505069495
-0.0026959396430367047,-0.003082520744301402,2.3916554421730184e-05,0.001447339572361914,-0.0007156412616203745,-0.0004639698246006533,0.0023458342118146897,0.0006738319136589233,-0.00017905353122499212,0.0008982167217215526,0.18222302754140224,0.0022120329700981464,0.0026081061827260945,-0.00017804451598101595,0.0013170005199106504,0.0005296003344830127,-0.002677536474088796,-0.001364053493813809,-0.0027016860590743453
-0.003819076940470115,-0.001754300339089097,-0.00042540455569475437,0.0003282034928994818,-0.003235403301427608,-0.0002646426585261047,0.0020265564031961758,0.001934882038306828,-0.0014583703837345106,0.0035602690120373065,0.02832736402612926,-0.0005342317018281483,0.002381883355658456,0.0014429027017795308,0.002589903387443782,-0.0005442556531319819,-0.0002779191747875601,-0.0011538113446265242,-0.0015203567132065373
0.0002141039051123955,0.0006330938323473795,0.0006319386875523338,-0.002230417358207358,-0.00044552917662383373,-0.0011146792479776314,0.002357296049286824,-0.0004490689473204642,0.0025691360940863195,-0.001519025290191071,-0.028253995737431547,-0.0012608457771930918,-8.68843888383893e-05,-0.004200917525693724,-0.0017593439960232342,-0.000654964012159813,0.002803639148357472,0.0014085237651754246,-0.0004572486742027183
-0.0004894287663220819,0.0001767443113191296,0.0020904211822069143,0.0013091300305638053,0.0004480144565678969,-0.00025728008081028444,0.0011917612491472234,0.0018064007385680584,-0.0012955594796993477,-0.0027931814679453297,-0.040481959060456714,0.0007282390149019219,-0.0024693686112184387,-0.0007378735116348561,0.001993298942579652,-0.001983352683026118,-5.238014068234909e-05,-0.0009265297223982618,-0.0009689459073707234
0.0013459831891567337,-0.00039787366691779896,-0.0017662846614550569,-0.0010289519002885715,-0.002085663155205594,-0.0058035988984071266,0.002154626383332937,-0.0021310971453589733,-0.002738235566439483,0.003309753548335806,0.0261597936301419,0.00037664151544981964,-0.00032152703559270305,-0.00042510676504885187,0.0006308534743635425,0.0001531896627266282,7.774804202462881e-05,0.0030395428196025322,-0.003135157274490827
-0.0025115413592161503,0.00010522222059121666,-0.00015356929775180584,0.0007037781771518002,-0.001340237764876194,0.0003988158653471682,-0.0005572869081456133,-0.002147637840084274,0.0030311331008851428,0.0004529943411548768,-0.03244439284041227,-0.0004369390162680567,-0.0031575849741566023,-0.001299661327668043,-0.0016769429940825297,-0.0020274094838703097,0.0022795360726430877,-0.0007419594842639753,-0.0005915934407275864
0.0008083299361616073,0.0032488591133753688,0.0012547573212374516,0.0021613987122447464,0.003384610291608958,-0.0013190195939390833,0.0019195171772270982,0.0007543775966924748,0.0029159670301368242,-0.0015386750134602787,-0.04946578590609976,0.002962913918452389,0.00032881014586543856,-0.00011608678795126436,-4.9704883459691224e-05,-0.0015599096916063624,-0.0010445885707437734,0.002178080414445812,-0.0027957925871143936
-0.00047456617742846634,-0.0015731487356588894,0.0016380441837964364,0.002318209401238832,0.00280310247870892,0.003131671985020883,-0.0004236626597940012,0.0014914135396177023,-0.0029803710143181056,0.004211484589980414,0.05454993574873371,0.0020835984409451305,0.0035098598700227866,0.0009419216715541419,0.0002450132668151895,0.0007875498552681004,0.0007320405427239937,-0.00030474659710197886,-0.0007907245488515399
-0.0010606827046885383,-0.001232581842251261,0.0026379357992287874,-0.0036428969509689707,-0.001456530136769507,0.0038478961954292123,0.002991472980087872,-0.00284282120619136,-0.00027008736238516524,-0.002332566189390073,-0.04288079405048578,0.0018295525859833802,-0.0013079745872002354,-0.0009584383565983176,0.00024774156981374556,-0.0020556201130327396,-0.0014023192941599897,0.004539439943699998,0.002100929195633271
0.0017459577135089843,0.001118839403048419,0.0013017126390770164,0.0007210419431107062,-0.0005573650270991906,-0.00026059861117775106,0.000381582589353816,0.0004789407156948766,0.003769143035480437,0.0024524172703030136,-0.08073910299984396,0.0027167574884982646,0.0031278066715324797,-0.0006120172483523026,0.0008865177287470236,0.0012966158204413011,-0.001401884310015017,-0.0011585485925317968,0.0022238797273135143
-0.001886444593953359,0.0008462790929565352,0.0037621984096854228,0.004484639869055228,0.0031728029033295745,0.0013740629915089588,0.002526539930759724,0.00013932065523845146,-0.0026207152841211142,-0.0006317922913847098,0.03656206386063697,0.000733447801000722,0.0011518085445869066,-0.005146141383147855,-0.0001954243741649357,0.0004249064844420685,0.001136377893288883,0.0014506370863648262,-0.000964518962176773
0.0014258989931929364,-0.0006425872741739623,-0.001299341853849383,-0.0014597509166531049,-1.799520509843741e-05,0.00110535593714879,-0.00045267767500765905,0.00429960110030634,0.002374500043534751,-0.0002978563863455441,0.02215223630000235,-0.00046544818967153155,0.0029708029821777443,0.0009937341952042053,0.0005608081924148692,-0.0009614500902541775,0.0014791736970439177,-0.0003571180471126252,0.0012781810473683974
-0.0018903062356090854,-0.001212992711601922,0.0034974671730732573,-0.0022832771363049233,0.0016181700142300433,-0.0016809959902941568,-0.0023018499935104388,5.042168927271645e-05,-0.004480976375144819,-0.0018645632842028085,-0.21623810338243524,0.001279984507633742,0.0015032477035292811,-0.0032516403056552148,0.0005232693984447081,0.000554759156691704,0.003486794136009079,0.003579868870668481,0.0015983545604008808
-0.0019655485563444095,0.0016978098668042109,-0.0010207967268005917,-7.554277324522042e-05,0.0013581968179285568,-0.0023172433122825523,-0.0010753549366054411,-0.00014496918191381442,-0.00291644587360751,-0.0009145754550264767,-0.014356979281931928,-0.001355732142207817,-0.0031046534791068017,0.0005146149406936888,-3.429969190110212e-05,0.0023327094702444945,0.00027093377239748376,0.0011881728159253062,0.003191791437784343
0.00036373902830891876,-0.001621119356023976,0.0006138337052231377,-0.0009416406850362603,0.001536528725687352,5.5607489686413155e-05,0.001292772474269931,0.0003460239839127669,-0.0005490696316804317,0.0002487737348212176,0.025950885379502703,-0.000558209476924788,-0.0011390891859503422,-0.0017936002959064545,-0.002478090987496307,-0.0024009371504464193,0.0019121172211566822,-3.269194028075375e-06,0.0012155648197518262
-0.004687660959113437,0.003008141530766816,0.0020935107245448926,-0.0006920773370785039,-0.00394387854255029,0.0005267110922631439,0.00111174953206592,0.0005945033755854905,-0.0018836783520790623,-0.003376854764579631,-0.18447991431316194,-0.0015118965001741948,-0.0034576686690646857,-0.0010193808045069583,-0.0005774489884543338,-0.0008002660629719324,0.0034387958911481333,0.0008008209497329475,-0.004935911432789461
-0.001717350015677734,0.0011070881418201936,-0.0007740331436396589,0.0010734042183548607,0.0036839440967364376,-0.000984654607428274,-0.0022926502278438014,-0.00022166052609516582,-0.004489356767201877,0.00020444240485625263,-0.012835981904159258,0.0019904120382910197,9.203190389916413e-06,-0.002782580767988746,-0.0010736891290752902,-0.00010914617308260015,0.002723002549653941,-0.005049117148307123,0.0028609255487231605
-0.0013445622254271259,0.0001960192605178619,-0.0001740536311439512,-0.0004852577811554439,-0.0010434916833465908,-0.0017271137077124444,-0.000609900885743897,0.004342445658298973,-0.001443425690504042,0.0038999772945112576,-0.10383017824395988,0.0023070560100287257,-0.0038351154959927365,-0.0007067661855465218,-0.0017942802845410553,0.0007516029219771305,0.00029462445902851805,-0.0008837165189584493,0.0015839681933348614
-0.002042887057190971,-0.001761101317347142,-0.0015605810988365263,-0.0010894437979061665,0.0018741109331225122,0.0032988089177224673,0.0038777956426955355,-0.0014200835155645766,-0.0008928514243910338,-0.0005157398388762122,0.22291140625583042,-8.62789855558909e-05,-0.001542095940046571,0.0006785932457811636,0.00035940103433141236,-0.001525120991242394,0.00044746502381428396,-0.0009652010268016913,0.0015267183223405894
-0.001710914960962038,0.0024739289636574796,1.2630057869478865e-05,-0.0021238914601026475,0.0006318685171482341,0.00027641333080746143,0.0005756505674037439,0.00047855421361008,-0.0031404958230541965,0.0004622952212820451,-0.01554273690472864,-0.0011122205099192235,0.003073347254212001,0.0009331056930020518,0.001506211911024807,0.0016465558221363088,0.0007780363830090204,0.0007747677744212601,0.0011141306820976055
-0.0013136735550107752,0.0012303757457225227,-0.0006399896106384364,0.003986399281471431,-0.00165081554849543,0.005017188072298948,0.0015439980926711097,0.0001479870738601379,0.00032800864553759264,-9.412845919079885e-05,0.1645753094423501,5.464401206275285e-05,0.002362422961451795,-0.000908553021166455,0.001733712670013509,-0.00171695213526259,0.0011258518880327506,-0.0011354857342871572,-0.002286882231138176
-0.0008623210083181847,0.003990506514116882,-0.0003642869213941009,0.001577607522454187,-0.00037986537261296084,0.001639983478668703,-0.0013032683400236158,-0.0012654600670031213,-0.0007449502640736426,0.0010117229241486975,-0.062162715513513184,0.0030075079795779105,0.0003806863318266075,0.0015541259317170466,-0.001312134841173541,0.0002568946527792185,-0.000513051876677827,0.002252420169067246,-0.0006698964550637315
0.003470491330155562,-0.0011385426818838885,0.00034470204698262055,0.0011745955448986684,0.003040604639506742,0.0015006933745543552,0.003138304355399963,0.00016011942810231024,-0.000682278706614828,0.002002051763725609,-0.047325683422351626,0.0020909085158308154,-0.0018430844301230796,0.0010861817160878907,0.0020904190092380735,0.004558044541538109,0.0004082468784615943,0.000390879891612918,-0.000261304877256805
0.0030624760863432205,-0.0021909183002825836,0.00039633088029547396,-0.0024494277340582574,0.001987758375248372,0.0006526109624806359,0.0021670833211344044,4.0632617345396984e-05,-0.0001956890737239693,0.002277172143017431,0.09158662472914599,-0.002398863281867743,-0.0002456887352213772,-0.002660065350742595,0.0016322553246806747,-0.0007879170740961162,0.0014728388358404394,-0.0005651930056815287,-0.0006248823313021049
0.0012170495887002149,-0.0005880901485226955,0.0007698020829161574,0.004384280571685984,-0.000167473803113694,0.00013239845553589594,0.0008513742425827786,0.0020020155893436995,0.0007043661540214605,-0.0003757953123339912,-0.10657550278704041,-0.004767527013659805,0.002482137563523041,8.235244007792229e-05,0.0009189743167947568,-4.750596189928472e-05,-0.0026767590263537537,0.0009018076967209547,0.001335511171961302
-0.0021219801606549445,0.002162058626920668,-0.0010227718004780688,0.002455243116934334,0.000497238830242962,-0.0004348809479028657,0.000896543826691607,0.0012090759133736016,0.0015996192920542497,-0.00015830209114732686,-0.09942453646702887,0.00027239607509898253,0.001485261141546241,0.0028442479436744618,-0.002028178697857736,-0.00020724140419209753,-0.001332750908669064,0.0034010156294020212,0.0007585254310142764
-0.0008550512236857485,0.002359904968879797,-0.0006449553326362176,-0.0032389747119054386,0.0007586032992957749,-0.002061621115358047,-0.002198945332392495,-0.0005350048209303022,-0.0018042181864683377,-0.0015030598814351828,-0.1447357986728932,-0.0025945052514039445,0.0005274079025168842,0.0006373198495799138,9.908606104512256e-05,0.0006801856767377001,-0.0006517673241441267,0.0001742415548242965,-0.0008739915039752315
0.00032361704068812073,0.001469155891647637,0.0034628371948385505,0.0008734990844445423,-0.0008408858326153006,0.0007335684346565866,0.002293378247312446,-0.0002589517863116947,-0.0005151255126341962,0.0004212534301721973,0.0037799301249716406,9.04787553118987e-05,-0.0027163330831695815,0.0008711929238721009,-0.0005713834943341104,-0.0018131326359434549,0.0010294056079383136,-0.0010359441829469616,-0.0012044269170395825
-0.0019159142353276037,0.0007955810948872765,-0.002538437517315082,0.001858837853094874,-0.0017199538392749765,-0.0035156693628346745,0.0030984524752703277,0.0014556070261965276,0.00019687642366338477,-0.0014630918967610683,-0.10243492610348154,0.0005588150463286992,-0.0009495468960544781,-0.0032039864757228325,-0.0015510221159328846,0.0015844291727896472,0.0004852979466387548,0.001462200403226529,-0.004397401349071635
0.002283420231074613,0.0026693778407923365,-0.00022113271557021365,-0.00041398081440616966,-0.00015373345660670533,0.0007906242021440811,0.0007592755480240031,-0.002075022859958477,-0.0022958711864854466,0.0023023977289959737,0.17990509369360116,0.0008567215760162777,-0.0014842979194008665,0.0030058525285142795,0.0041995079179725486,-0.0023025071464784345,-0.0013988896893257913,0.0009061730134072857,-0.0020328501987622884
0.0017538882140464205,0.001629960150537735,0.0019080829814363787,0.004512401389143383,-0.00046732768072700164,0.0002981785749347203,0.000608950123658936,-8.151037278305858e-05,-0.0025171934294815875,0.002261262439332058,0.18094759046465503,0.0003929911092385554,-0.000982984075221605,-0.0031086500651910974,0.003308704215549468,0.0004915786663468465,-0.0013509570167355644,0.0022636531253416247,0.0008976472175241392
-0.0015313907681805015,0.000425116478746579,0.0003805780464172417,-0.003047721574770791,-0.00031068189246580546,-0.005765328978392056,0.0009640655083044946,0.0003262420264339421,3.0859930688256955e-05,-0.0012867417549872102,-0.10022252179989416,-0.0010147572272376506,-0.0020398608512142316,-0.002013747209430024,0.0011272816947185775,0.005085676428425875,0.004653537298213329,0.0014751252416732043,-0.000923511861776667
0.0004639453457228133,0.0007573498345253107,-0.004023345029944343,-0.0008783764096252578,-0.0010646306669220111,-0.00012891629593067167,0.002549341058502513,0.0009147724085175775,-0.0011911449217489106,-0.0007680337113676978,0.02255893595574257,-0.0009667839388298903,0.00040975272813098345,-0.001892348350443935,-0.0007313141179085793,0.0020288488924221403,0.00044380511612703114,-0.00013561584471034216,0.00025642164795723995
-0.002252288753332443,-0.0012452575013120778,0.00030819686435010256,0.0037733460257564494,-0.005429641152743484,0.0031708921083162807,0.0017174635018906133,-0.0028066928389705544,0.004407865832808817,0.00015677586363646397,-0.13217500700676085,0.002007667389913536,0.002975339600600762,-0.0006955091148751949,-0.002102891654805533,-0.0009609861850211827,-0.0014965908264409995,-0.002169992777607627,-0.0005504082480504584
-0.0004602972449959576,-0.0024286048277344127,-0.002307468039361158,0.000895320035986806,0.00015621196321604082,-0.0024981032227157094,0.0024964507082084384,0.002557840561275108,-0.000166270593647372,0.0008994675659253717,0.06605854884225082,0.0014088351373734477,0.0031545610224987058,-0.0009578681405765419,-0.001166150749026274,-0.0020978686318958435,0.002299181802574125,-0.0018664986684183685,-0.0007340285244175958
-0.0016243022019168407,0.0013890572207951642,-0.0021151503746986012,0.0031659487770723765,0.00012613358968204994,0.0019316127993208312,-0.0032938100724173554,0.0017908358019555176,-0.0003385761060489589,-0.0011060877717708644,0.16557329553817499,0.0005520263241999725,-0.0005393966674739765,0.0008376521535126359,-0.0009290135502975786,-0.000809299398468364,-0.0010990536289600143,0.0029213054863345155,-0.003495050647399331
-0.00149010891397168,-0.0001545290500829707,0.00039727756287209054,0.000976788052322007,-0.0013328815678284622,-0.0005817238422161994,-0.00037245841486626736,0.0009069540356387405,-0.0020930204401772134,0.0015659385741760641,-0.29730532601080134,0.0011970633505981455,0.004596900371254127,-0.0015395570960820496,0.0016710538291699654,5.751112980647462e-05,-0.003893526649981209,0.002035503823968906,-0.0031381380261182815
0.0018851831327788842,-0.0038227876397476618,0.0019016047100870715,0.0014825534525438103,-0.0021216934332558366,-0.00013528826074991676,0.00042741346285484584,-0.001824081820720992,0.0036113865636186165,-0.0030254218256303,0.01061437181854974,-0.0002092712175425795,0.000899507426175635,0.0002029464282080599,0.0031431522811045305,-0.0049073929063025035,0.0008282512984520953,0.0024488210680328184,0.0007701347903339237
0.0013331591420396016,-0.0031232114968003295,-0.0018126811564434526,0.0014058282479087148,0.0011057507077073226,-0.00044956937178023955,-0.001564890414395745,-0.000849926606550538,0.0007232918314193559,-8.816857800897068e-05,0.021861193656131043,-0.0006996634953065803,-0.003379369836002265,0.002321853196806466,0.003624458874930145,0.0016417238759092415,-0.0026295117247366806,-0.0009828633059651604,4.2857598506564695e-05
-0.001152482238369238,0.0012771544250569822,-0.0010575575701336284,0.0035394879146191756,0.0033254750785641145,-0.004463879620978998,-0.0021663762741120276,0.00038248002430726295,-0.0027143744723820903,0.0028283525715873123,-0.09608069348901065,0.004018303677877325,0.0013702424125062425,-0.0016743304653031818,0.0017635869870460466,0.00043357868696828543,-0.0015038871669655093,0.00301763686869926,0.0005457179680040807
-0.004638257562080686,-8.466277432126764e-06,-0.001472646473220239,-0.0024682649162192784,-0.0015596730850668886,-0.0010480972900210734,0.0004836589581253431,-0.001570901768735246,-0.0016760846952887157,0.0005304189636163628,-0.029431219289394274,0.001239837939043944,-0.0018527634579749727,0.0011108122581926165,-0.004357292280114151,0.00012323340857670165,-0.0006704247821813876,0.002482362036048456,-0.0016936341564711029
0.005101123659321655,-0.0018496545485137761,-0.0017801023495153563,-0.00028505538822912597,0.0016338874207175432,0.0026871112067210923,0.0020879336792980763,0.0007087265766179992,-0.0020933909403253862,-0.00068582199481265,0.08731997085476022,-0.0019691416854748186,0.0006994436509701807,0.0014713473438817933,0.002227030930409031,0.0014537742219145056,0.0014137596450404047,0.0003233931455441982,-0.0012274880307538924
0.002662276792433538,-0.0005200761756787379,0.00041944091581528915,-0.0007007649432862782,0.0009861642761510203,-0.0015231490076236178,-0.0020311948337890687,-0.002770386289107411,-0.00024869792535588066,0.0030167273799747082,-0.14056319777568446,0.0013308665910081049,0.0009187232743653632,-0.00043523261609017684,0.0006746644870522598,0.001228351268754888,-0.001001592129610776,0.0002991476780990788,-0.0014680140494675357
-0.0008946480284823279,-0.0023183291480531744,0.00265719192728792,-0.0029731278384053563,-0.0027068817451428207,-0.002753204014031376,0.0007888198744613988,0.0019774291724898325,0.000656088998948428,0.000490284705740823,-0.04828729008196977,0.0024240099401322958,-0.0011584865588887003,0.0002573050025854364,-0.0010734388276204749,-0.0010477930982629637,0.0020334671030340463,2.4305392684884977e-05,0.0010660407706046021
0.00234752302500328,-0.0012643591920945064,-0.002578213019520666,-8.57045378321772e-05,0.001544922382254042,-0.002067481480389184,0.0001107664730737211,0.0016359748227481967,-0.003087947090662992,0.0018747466285799553,0.04284847899066984,0.0003828345700043093,0.004272127962155654,-0.0032220044637110046,0.003506702792317906,0.00020591085722458983,0.00220212984561817,-0.00027277456520430685,0.001018873851498568
0.002965704467468652,-9.683678774783404e-05,-0.0016970803553208534,0.000116194542321741,0.00043162093645857807,-0.004880964653179513,0.0002415909424751212,-0.0010936320993462452,0.001442472948899199,-0.0031568430215008813,0.19293406659695908,-0.004337837478486958,0.001294132912365142,-0.0031255664212113073,0.0036122852041039384,0.0006610029735670082,0.0006504428100769556,-0.0021732178934449507,0.00020691773839619874
0.00023537852532655345,0.0003258974848793762,0.0028694425854836783,-0.0016890651237406694,-0.0005764214748794418,-0.004068382801430426,0.0005798220288165,0.003535293523679439,-8.198968995786235e-05,-0.0010363654269948837,0.004356795847843744,-0.0001043174127287825,-0.0015324113527852197,0.0017726127634133373,-0.002364928447510698,0.0032221861398003013,0.0052175372670482814,-0.002306702965223175,0.0017122208527430524
0.002457087580545044,0.0006225867292784389,0.0016095224633716225,0.0007282976477912975,0.002226436382374363,-0.003915572565645143,-0.0006663308937001543,0.0009221256626404028,-0.0021496799127916537,0.000681667757400598,-0.025706246319431903,0.00010721290964199454,0.0013661573678206264,-0.0022654348070807588,-0.0008754318845604074,-0.0012372933569032274,0.0001963492414764296,0.0009021484449431534,-0.00048542372915339767
-0.001838896961668628,-0.002173811349650247,0.0005153771763749717,0.0004089596709212046,-0.0002741123228462769,-0.002093129703138835,-0.0020990091379778256,0.0009214989301383899,0.003899411579205899,-0.004388558456728391,0.01870497583687396,-5.898578676667582e-05,-0.0006867992044592392,0.0012028300164745806,0.00032532240289516695,0.0006289208262514199,-0.003631893848032154,-0.004882734120219206,0.0016216963887202812
-0.0011565958637566385,-0.0014922553065412059,0.0031485321739008103,1.9997751005521496e-05,0.003428815989324826,-0.0025501885750782364,0.0010412207732895737,-0.0005559359393446493,0.0022532864305273557,0.0038209403462843637,-0.15053905832319703,-0.0035696421462278363,8.801185832145748e-05,-0.0010910755468228242,0.0007267705844972249,0.0015813815391715778,0.000875554690326039,0.0020139813947487695,-0.002030157822200539
-0.0010931942913508816,0.0005591367089573026,-0.0007195409999713272,0.002336260269011845,-0.002331764238723403,0.000899050821416267,-0.0006264293070907345,-0.004252024432568669,-0.0029499514541400837,-0.0019713289866559775,0.11472221438549783,-0.00227662482217981,0.00018405582629838255,0.0034625125880422226,-0.0007561887506436161,-0.0015149095539500822,-0.00015540555772751034,-0.0008378237339558059,-0.0010094584880485783
-0.0028215671543140937,0.0010741891506078655,0.000989625674108072,0.0006901983342492756,-0.000973588908310209,0.00032096015499762803,0.0026406677204153656,0.0027554724317987002,0.00038911784912941546,-0.00498514976835674,0.09411526111097972,-0.0008442324754726246,-0.00019060704562495057,4.715798023917471e-05,0.0002136994223573884,0.00016621409471317486,0.0008636657529365006,0.0018147039578439502,0.00044905409144317904
0.0007572824766932061,-0.003240941352363351,-0.0022093328135311114,-0.0017574691533203447,-0.0005881962669927692,-0.0004822038709225231,0.0012557567877867718,0.0025355144652744756,-0.0026430678985047266,0.00030941671636360675,0.12537604257489846,-0.002996482117084843,0.003603971077295851,0.0004250454025075429,-0.0017496778699549371,-0.0014423938628447771,-0.0006062959816619697,-0.0034320769583303322,-0.002896146306901057
0.00014683289606163465,-0.0005734263426566054,0.0009583746790453175,-0.001478830289215619,0.001341492630283141,-0.0032305828829458684,0.00010668589318751855,-0.0006114796405519511,0.0020853549956219085,0.0011579401525315944,0.12038337330541245,-0.002450944573778974,-0.0029194343731485015,0.0002623131977410066,0.001695506400060674,0.0011548616508186029,-0.0015914594775534275,-0.002042286152755943,0.003952861565444602
0.0026446035298071306,0.0013709838014253376,-0.00034434192854707697,-0.0010233304363756958,-0.00121424805085874,0.0012031145341746565,-0.0005473870269790337,0.0009579304872024422,0.0032765545431438295,-0.00164524346669788,0.009145234935523524,0.003566279864933024,-0.001942485004476255,-0.0009519537339888909,-0.0018888124981302175,0.0026581130645787496,0.0012180359265771448,8.751834462712265e-05,0.00034999103244932336
0.004411405065144533,0.0015613009054246776,0.002545439288429546,0.001321519786740534,0.002859779537200683,-0.002233162467953034,0.0010722391533193809,0.0007885782517758068,-0.0006490676995098776,0.001547278731196134,0.05517904829708765,-0.0026588896598744084,-0.001999263424216834,0.0007746400911972668,0.0007623152833786544,-0.0005382445870957137,0.0017055677836599465,0.0010201740286476671,0.0003080755860888828
0.0017563075432015527,-0.001236806792614239,0.0017692182925922696,-0.0008597445067335149,0.001465128446666944,0.000642605089280702,-0.004286049629114348,0.0010271345587853653,0.0012563944891192656,-0.0004249377368235938,0.06932977600040267,0.0012194152183007253,-0.000521303186435884,-0.0008349128124158585,-0.0011643327544955805,-0.0033536936205132914,-0.0024212998480049545,0.0005617741265886356,0.0004510130228036877
-0.0011342078714152767,-1.4924852274032215e-05,0.00023215166779805245,0.0023685228537744995,-2.9643625254526394e-05,-0.0007795628980605629,0.004624548234923623,-0.0011551524087912532,-0.0012109948373826601,0.001412779259134414,0.02831931024837786,0.00047441553616152306,-0.000558918183802726,-0.001603139150492476,0.00026054975775973555,-7.217783697531964e-05,0.0009819857870627972,0.00029326204421328817,0.0007610300960779066
-0.004985471207233196,-0.0004711565233446223,-0.001978994122009966,0.0034965315895037485,1.4457513672815911e-05,-0.00017977152100426809,0.00313857790620132,-0.00011270042061959849,0.0023595392246535058,-0.0003389929973351764,-0.06048983109135349,0.004032063582151933,4.7097424412268914e-06,0.0012007175993926185,0.0019049933196954455,0.0010534994685877219,0.0004956111853454684,0.001138374715135862,0.001493115512302517
-0.0013436962040637762,-0.0021639912767326117,-0.0020352452706464503,0.0009362812305517709,0.0017412901182009143,0.002337571744958262,0.0029040406646330783,0.0020366716704277436,0.0002647690951214368,0.0007136439976783296,-0.007838409153173603,0.003923609454168143,0.00022106368316396994,0.0005415624562616916,-0.0021927147223213916,-0.001083667711990188,0.0036467074360123594,0.0005344728448765732,0.0013104938513881107
-0.00011571742669696799,-0.005145766709959743,-0.0014107233168632438,0.0005002922123866231,-0.0003644602554265411,-0.001231622050162212,0.0008288932874068139,-0.0010329406697653432,0.0020258924783690094,0.001993682219757524,0.058389224039819464,0.0003214660075279685,-0.0005387323515539109,0.0008227982199102164,0.0009284037030195186,0.0024287551431633092,0.000790304684224074,0.00016068042592858162,-0.0022489535994383598
-0.00158770342041771,0.0010513157613033703,0.00441507749264803,-0.0030174305703845826,-0.0011610341022808943,-0.0008955903243621432,0.004073444183584145,0.0020732764777749227,-0.0005269889384677261,0.0013110483976957797,0.01866924267609612,0.002273673152971817,0.003660883971253583,0.0009789758744188537,-0.000980523616878534,0.00033896847062881455,-0.0025018008056883843,0.0021358881981913725,0.001791461401611819
0.004173865069623581,0.0014132774983679204,0.0024783382514426177,-0.0014762755310034664,0.0025505626537382304,0.0006064047135164693,-0.0029853255823135225,-0.0018328818161686767,-0.002708207156351115,0.0009841428680292938,0.062333921833285066,0.00373568496815901,0.00032600289604901644,0.0028578170887078205,0.002496025880998373,0.0011516185122017796,0.0016365258075258205,-0.003060754571890953,-0.0008259996132573694
0.002039230166529354,-0.0023894400016637573,0.0013192739237678653,0.0015399477334770242,-0.0021654168301667503,0.000551678479982744,0.00026228139772779054,0.00015320529665630524,0.0016829240891899082,0.0009355086062026736,-0.19135359345399108,-0.0005845486228291751,0.0020299968756452885,0.0004729220485545287,-0.0015228416533267823,-0.0014497816222002052,0.0006630558401309004,0.0010518956998073078,-0.002213874945685158
-0.0021913835382349673,-0.0014405635497357727,0.0013735646211348086,-0.0017605098581658103,-0.0018576517010545639,-0.000754480054046428,-0.0012456363537795719,-7.037170755481852e-05,0.001323918044843604,-0.0013090723962375535,-0.04100923782398458,-0.0016067073195573465,0.0028430106847820913,0.0005798941938106001,0.0038788545694411654,0.000999852378529673,-0.0024267247990175118,-0.0011226741489155287,-0.0030928419576059856
0.001743803716561567,0.00022195173623514863,0.0012224813471043154,0.0022709159200712866,0.0017676596526734528,0.000521993958607015,0.001542666820082385,0.0005808399222966587,-0.003893508787962886,0.0018797647082712324,-0.047055376135139014,0.000603630064661021,-0.000880023520603454,0.0008299270780077985,-0.001858618389289679,0.0011981863983842505,-0.0032023070138924564,0.0010335120287719224,0.0015962776027214128
-0.003944770200653542,0.0004362191821049863,0.0011027170482605473,-0.001274613510186828,-0.0012122458213710988,0.0024008274687383957,-0.0002511741209842134,-0.000363615838800875,-0.0026643486204818586,-0.002356394945327869,-0.08999747655940162,-0.0030417007329785945,-0.001275917394640669,0.000742092190279034,-0.004097354121620511,0.004941728972185735,0.000197584734871487,0.001995584312664393,-0.0010154294184912156
-0.0008638480112927352,0.000830102391145698,-0.003946306092056587,0.0005682911951931862,-0.002493725322824714,-0.0001236571235721548,0.0009352757627713129,0.00011365491889102073,-0.00016006949986031895,0.0027933124632677727,0.019770605466652102,-0.0005379732299735342,-0.0007716163338209596,-0.002006076636016781,0.0010956368944012623,0.00223625653032388,0.003274098392031277,0.0021338879865240336,0.0030440878820879543
-0.000584755648207937,0.0013226518363330744,0.002521187426071146,-0.0020244713500253905,0.0029169102767317863,0.0016791403600197635,-0.0001023729877352163,0.001315232815086448,0.0013117567524861182,0.0019751212270888593,0.021020822379240064,0.0036341535539931515,-0.001319717892380887,-0.0008210139996590409,-0.0014528346574462466,-0.0008148204208080048,0.0015684136523920588,-0.0010572628355636263,0.0006658226056042544
0.0015164094743382352,0.0018467652317858299,-0.002726042732554449,0.0017681972571399593,0.0021191784980492913,0.0013410064302723614,0.001830163606193957,-0.0011210884310578245,0.0022044066068057982,0.0012150773197075388,0.1006165833824507,0.0007736490773801227,-0.00029160281764963476,0.00018450588788297657,0.003556612255611698,-0.0019043383985663112,0.002700049940528117,0.0004134520683860667,0.0010436687277644067
-0.0014197656421338848,9.035970517490904e-06,0.0016182283160472877,-0.0009468218074408842,-0.002540290334216728,-0.001976934626222095,0.0009962104182642101,-0.002648747095789743,0.002488882524823816,-0.001428686115452567,-0.06800531627642468,9.587381795004921e-05,0.0034849296887037046,-3.478518627352197e-05,-0.0012646666802751203,-0.0006032005588876566,-0.001701265934971775,0.005070263789994384,-0.0013954365221134966
-0.0010345547813440106,0.003453693314997073,-0.002045834842556418,-0.0006777891077515355,0.004420937773509186,-0.0006829354731545991,1.5803873622059888e-05,0.0007332599887280814,0.0005967122187344079,-0.0030302033364120505,-0.030807685227203736,0.0005722480122758682,-0.004466842047194397,0.0012914886154084832,0.0016220380876907955,-0.005087622952640852,0.00036387993693667354,0.0004446148419564288,0.0026536144318649343
0.0002580358314427297,0.002076001810257682,-0.0003659568442801592,-0.00030211230443252996,-0.0013005154538048296,0.0009452345789680498,-2.867015406578629e-05,-0.0011832092545996334,8.713077121831869e-05,-0.0008965611621569631,-0.013884369242810838,-0.002810942796986797,0.0012031708966907368,-0.00304162174972509,-3.719791294889018e-05,-0.0026215542021796757,0.0013744909087228408,-0.0004481496241109785,0.003759948301363276
-0.004213094483402311,-0.00025050480133898857,-0.004046246745715816,1.331670542195037e-07,0.0024160893379575085,-0.0006651993236846598,0.0010835379566127054,-0.0028566630345205676,-0.0032947355506245685,0.0019876537255294827,-0.08319550202161555,0.0001303581807915894,0.0008369915308759578,0.0005194216902579268,0.0011968741142428818,0.0032528375353628063,0.0019429402752891788,-0.001658283446927103,0.0035709125963647235
